634,630,615,616,628,599,614,596,599,607,571,580,563,565,575,549,553,538,541,552,534,535,521,522,536,534,520,510,521,539,547,522,514,520,538,553,544,541,545,555,506,538,521,512,509,510,487,472,477,496,567,517,522,534,557,578,560,560,565,579,563,559,549,550,561,520,545,529,516,505,314,527,485,448,398,532,219,154,124,285,625,742,850,792,695,566,577,556,557,569,549,552,533,535,548,533,534,515,518,533,508,514,495,494,505,476,486,473,474,480,437,458,440,435,444,389,415,394,387,396,417,376,371,381,399,486,419,416,431,464,600,495,504,536,574,651,604,606,622,642,634,640,626,628,639,605,616,598,599,612,574,589,572,569,578,544,553,539,538,545,532,525,515,518,530,527,518,509,511,524,532,513,501,505,521,529,517,504,509,527,549,521,510,516,539,542,544,532,540,549,489,518,495,485,491,495,474,461,463,475,555,505,506,516,541,555,551,542,544,555,548,542,531,528,541,487,533,509,488,479,186,453,390,346,272,622,124,108,137,367,629,824,864,770,689,579,590,568,568,578,549,560,538,540,551,522,535,514,508,519,497,507,485,480,499,466,479,460,453,467,416,445,425,418,422,374,398,376,367,375,399,363,351,356,381,472,401,399,419,447,595,491,503,529,569,655,607,612,625,647,643,649,633,634,642,606,620,603,600,613,580,589,569,564,579,531,523,505,508,522,535,521,507,514,527,537,522,506,509,528,540,523,514,515,530,487,470,462,453,468,549,546,536,534,545,212,466,403,352,292,544,134,111,106,261,647,795,878,808,707,574,596,563,558,569,550,565,539,532,544,477,491,470,465,473,433,460,440,434,439,384,415,390,379,382,397,375,362,363,377,474,402,401,416,449,591,487,499,524,560,660,603,609,625,645,646,649,634,624,637,621,632,615,607,615,592,607,584,581,590,560,582,559,553,559,538,548,530,527,532,536,532,519,509,527,530,525,506,503,515,539,529,513,512,527,546,534,521,523,537,542,539,526,528,536,549,541,528,520,536,564,546,536,543,560,506,548,521,507,504,500,497,481,478,485,544,498,501,509,527,564,546,539,542,551,554,553,536,534,548,489,543,527,517,517,382,476,470,442,417,300,307,210,177,165,709,529,730,855,815,559,625,569,552,556,546,559,537,530,541,527,537,517,513,523,508,520,501,493,500,486,497,483,476,478,449,478,457,442,446,399,436,411,398,400,390,392,369,363,375,446,392,390,397,420,561,461,469,489,522,641,581,590,603,628,648,645,635,635,645,620,639,624,613,617,596,614,597,586,590,564,590,571,559,557,551,561,542,536,542,538,540,521,512,526,532,537,521,512,520,530,527,515,514,522,539,527,518,518,527,544,537,525,524,534,546,537,523,519,536,544,548,532,522,531,546,541,529,524,534,542,537,527,527,533,562,540,526,524,545,531,561,549,533,531,497,514,488,480,488,534,491,477,480,504,570,531,525,536,556,554,563,545,545,550,546,552,534,527,534,465,532,486,457,469,213,424,387,325,249,814,195,251,444,628,583,831,726,633,596,556,575,559,546,547,535,551,533,528,536,519,529,515,512,514,497,515,495,485,492,461,489,467,455,455,422,447,432,421,421,374,407,384,372,371,406,371,363,363,380,486,416,418,427,454,613,511,526,544,579,663,633,634,638,654,650,666,656,643,648,621,639,618,604,615,589,613,595,581,580,564,581,564,556,561,545,560,545,536,539,543,541,526,517,528,539,539,521,517,527,533,536,522,520,529,534,528,515,512,522,527,529,511,512,517,532,530,517,513,520,531,529,514,511,520,531,527,518,511,518,540,526,518,514,524,548,546,538,538,544,488,538,511,490,482,488,482,463,454,461,546,504,504,508,525,549,548,540,539,542,543,540,524,521,537,470,538,516,497,470,267,479,438,391,344,415,165,119,105,177,656,667,847,844,739,574,604,573,560,566,551,565,545,532,535,520,540,519,511,515,494,509,493,483,491,466,482,467,461,464,415,455,433,419,418,365,405,385,369,366,371,354,342,337,349,443,381,378,384,410,571,466,476,494,533,656,591,600,612,635,660,662,650,645,652,630,653,636,621,623,601,627,609,595,597,563,588,565,554,561,538,554,537,527,525,528,534,518,508,515,522,523,507,498,511,524,526,509,504,512,527,524,511,506,518,531,527,514,508,517,530,529,512,509,517,532,526,512,508,519,528,528,514,504,510,528,527,514,505,512,549,530,512,515,532,503,545,527,517,510,474,489,464,455,464,515,467,456,462,491,553,522,517,529,541,543,548,531,525,533,518,541,523,514,518,411,485,452,459,440,107,359,263,157,119,861,201,432,662,848,567,743,635,576,562,550,564,544,534,539,527,544,524,512,517,503,524,500,490,493,480,500,480,471,474,449,470,448,437,441,392,442,417,396,396,363,376,353,342,350,401,362,358,356,377,517,421,423,440,471,636,539,550,570,604,672,652,650,648,660,643,666,643,628,630,617,633,616,604,609,578,604,579,572,571,553,565,543,534,538,533,544,528,520,527,528,533,511,503,513,536,529,517,514,527,539,533,519,515,523,544,533,523,516,525,539,546,524,513,521,550,539,525,514,527,560,556,542,537,541,492,547,511,484,479,509,489,470,459,475,561,530,520,514,538,555,564,550,541,546,550,553,535,524,533,491,542,504,457,461,172,461,397,324,234,764,137,110,216,481,609,876,855,723,642,574,595,575,562,564,555,567,550,536,543,522,545,521,509,512,506,520,502,487,491,475,502,477,463,463,426,467,448,428,426,381,416,393,376,370,401,381,368,364,381,498,417,420,432,461,628,530,548,567,598,677,650,652,650,663,664,677,665,649,651,649,659,642,627,634,616,642,624,612,610,568,603,579,556,558,545,563,545,533,535,536,542,527,518,521,544,538,523,516,527,545,543,533,523,530,545,547,534,525,529,547,549,538,529,532,579,555,552,552,564,521,571,549,529,525,560,547,543,543,551,472,545,526,509,496,325,473,464,415,375,276,247,155,116,114,712,528,751,870,810,555,573,552,538,544,527,549,524,509,516,500,520,501,487,492,480,496,477,462,467,435,474,451,433,428,378,429,405,382,377,363,373,351,339,341,429,373,373,376,393,560,446,456,475,514,660,590,599,608,631,665,669,663,642,653,634,657,638,622,624,599,628,608,592,590,565,592,569,553,556,543,563,542,528,530,540,542,527,517,524,537,541,525,513,523,541,538,523,514,516,542,545,532,520,524,564,548,536,524,532,551,580,556,535,544,490,540,506,474,473,517,491,475,455,477,563,533,524,525,545,560,567,552,540,540,542,561,540,523,527,466,532,485,455,477,114,415,338,233,145,846,105,155,392,660,594,879,767,659,604,567,586,571,557,556,541,566,546,533,529,516,536,517,501,509,481,514,497,476,473,449,477,462,447,441,401,442,420,400,398,349,391,365,342,337,379,352,341,337,354,477,395,399,409,434,605,511,524,542,569,652,626,630,627,631,630,653,635,620,623,593,625,610,591,586,565,591,573,559,556,536,560,542,519,518,520,539,524,511,510,518,525,513,504,502,528,523,515,504,512,527,531,519,508,511,537,532,517,503,513,531,552,544,524,522,466,521,494,465,459,497,467,451,436,458,542,518,509,503,516,531,545,534,522,519,524,534,523,506,509,467,517,473,443,470,120,419,350,245,150,830,106,139,360,627,571,861,735,626,577,542,569,555,537,537,522,542,522,505,506,497,522,505,490,488,469,498,482,461,459,435,473,461,436,430,383,433,417,390,381,348,377,358,335,332,378,359,345,338,349,478,398,403,411,438,604,508,532,542,567,642,629,624,617,627,622,643,636,614,613,594,622,607,589,585,563,596,582,562,555,525,562,545,523,518,509,528,513,504,503,505,517,508,495,495,508,509,500,486,489,509,519,511,500,496,530,523,523,512,515,484,531,519,498,485,453,478,461,441,442,509,472,487,489,492,533,525,530,520,523,521,538,526,513,510,450,526,515,487,459,314,476,464,407,369,378,239,197,139,161,624,611,811,830,715,517,537,525,506,507,503,525,513,498,493,482,508,494,473,472,450,483,471,452,444,413,453,439,417,411,368,416,398,374,364,369,372,361,343,347,437,389,391,390,405,554,467,481,494,516,628,587,596,592,602,621,643,635,614,609,601,626,614,594,589,564,605,586,564,558,532,566,552,526,519,515,538,524,500,501,512,521,512,495,494,513,518,507,494,495,524,527,518,502,503,543,539,540,531,534,486,541,524,496,481,463,488,473,455,453,525,483,496,501,504,550,548,553,539,530,531,556,544,525,520,287,509,482,417,359,385,196,132,110,164,631,604,784,800,704,557,594,569,548,548,533,561,546,525,523,508,541,527,504,494,483,515,502,484,474,457,487,475,453,445,410,461,444,415,400,360,413,395,364,353,368,368,359,342,344,432,388,397,395,404,564,467,487,497,522,639,598,615,609,617,642,657,652,634,627,607,640,632,604,597,569,617,603,574,563,545,572,559,540,537,527,555,546,523,513,525,544,533,513,510,527,537,528,513,514,541,542,533,522,524,550,568,567,551,543,483,549,523,485,468,481,494,490,461,456,550,518,532,516,525,546,569,564,541,533,537,560,548,526,522,528,539,515,472,490,131,500,431,322,211,675,110,104,175,414,590,850,813,692,616,554,586,578,560,547,532,563,551,530,522,495,541,530,508,496,474,508,497,475,470,437,478,465,444,433,394,442,429,408,389,350,397,380,352,338,378,369,363,349,359,458,405,414,414,427,584,498,522,536,552,634,619,627,616,620,615,646,640,617,603,580,626,614,588,576,548,581,572,551,541,524,552,542,521,514,512,536,528,508,503,511,526,521,505,497,508,524,518,505,497,529,524,523,514,516,528,558,548,530,523,463,531,508,478,458,495,477,475,457,459,549,530,535,519,528,530,563,558,536,524,516,548,544,523,513,491,516,484,472,495,162,453,383,284,188,847,121,202,424,672,548,847,718,606,553,539,560,564,542,527,519,550,539,517,511,499,527,519,499,489,471,510,504,479,468,445,482,478,453,442,396,456,443,413,395,369,399,384,365,355,401,391,392,379,380,494,434,450,450,461,602,536,558,565,575,634,628,639,628,625,611,645,642,619,604,583,620,616,593,582,555,593,585,565,551,528,562,556,535,522,517,530,533,514,505,535,533,533,510,514,524,559,560,538,522,473,533,518,488,468,513,489,483,472,481,553,546,544,530,534,545,573,570,550,539,527,559,555,533,522,469,523,500,497,497,167,436,355,258,191,858,181,354,574,768,533,568,566,542,526,515,550,545,528,509,496,531,522,500,489,466,509,504,480,467,435,479,477,453,434,386,445,435,411,391,367,398,390,370,359,414,392,395,385,389,506,444,454,457,471,599,547,567,570,577,619,628,634,620,611,597,634,629,609,591,571,614,610,586,569,535,581,575,548,532,519,547,545,524,512,506,530,530,513,501,508,526,526,512,496,516,528,530,515,500,516,537,538,520,509,535,545,561,547,530,468,546,536,503,476,459,480,477,459,445,524,491,517,511,507,536,552,561,549,533,521,554,554,530,513,471,542,536,500,459,196,503,462,389,280,453,131,108,103,211,628,705,860,812,702,569,612,600,581,566,534,578,571,545,530,505,548,542,514,496,471,519,512,490,466,444,487,481,459,442,398,455,450,424,403,356,411,401,376,353,369,369,372,358,355,437,398,414,414,415,557,477,509,520,530,634,602,621,622,616,621,651,655,634,619,591,634,631,610,591,557,606,594,573,558,531,568,567,540,528,512,543,545,522,509,511,527,534,518,502,510,534,533,516,503,517,530,536,522,505,518,542,541,519,508,540,544,555,552,536,477,553,546,518,487,449,486,491,475,449,517,476,506,509,504,537,547,565,555,537,529,553,559,540,521,461,547,549,524,482,207,493,474,395,306,316,137,111,104,106,704,604,826,888,795,576,654,625,598,576,544,589,587,565,544,516,560,557,538,512,479,528,526,505,483,449,497,499,474,452,409,462,459,438,415,355,414,405,385,358,365,373,377,361,352,425,392,404,407,406,547,464,492,500,516,622,590,615,615,607,630,649,669,650,630,598,642,641,626,602,561,615,615,590,562,536,572,569,553,534,518,549,553,533,508,505,539,545,525,503,511,529,535,526,506,514,529,535,519,511,513,530,538,526,509,518,534,544,531,513,513,534,539,526,514,516,533,541,530,513,527,545,558,542,520,460,533,524,492,463,469,474,481,460,448,522,507,526,517,509,518,547,558,541,519,514,533,542,526,510,524,865,769,642,559,503,528,541,531,509,481,515,520,505,484,458,492,502,490,464,431,468,472,455,431,402,445,447,429,409,361,410,417,399,367,333,376,372,359,334,375,353,367,361,353,461,409,437,440,435,596,513,558,575,580,646,626,648,649,639,573,637,651,627,580,503,607,625,587,523,485,524,537,513,470,475,553,588,542,475,463,516,534,495,448,534,535,597,595,543,581,601,654,641,591,614,633,683,662,619,543,686,742,693,582,464,586,624,574,484,478,530,587,562,483,668,606,697,693,649,780,756,825,819,768,868,862,903,912,863,892,906,916,917,897,831,913,917,903,828,527,874,886,800,640,865,548,580,640,750,757,904,915,914,807,709,802,860,830,740,661,759,810,770,683,648,719,778,753,670,657,708,773,748,676,671,720,784,762,685,688,744,815,799,718,723,743,807,792,730,817,803,884,884,823,919,880,909,917,920,919,920,920,918,919,919,919,920,918,919,920,921,919,920,920,919,918,919,920,919,919,920,921,922,919,909,922,920,920,919,838,917,919,920,864,788,885,912,902,820,778,841,899,883,799,824,841,898,904,842,818,877,909,914,841,703,861,900,849,746,774,777,873,877,800,695,817,862,816,719,782,752,834,835,777,856,861,904,915,871,899,898,912,919,905,912,914,918,918,916,889,917,919,918,893,847,911,920,920,869,811,891,913,910,841,761,850,898,878,797,720,806,859,832,747,723,777,836,819,747,684,775,832,804,720,642,730,787,760,674,583,685,734,704,617,580,629,693,678,606,520,627,681,649,560,462,552,599,573,496,471,504,566,556,490,454,524,584,568,488,434,499,559,544,465,387,483,545,524,432,306,406,448,452,375,110,323,312,201,129,759,119,347,565,706,633,761,779,745,661,633,689,764,757,682,577,671,726,704,616,541,616,681,673,591,514,573,632,618,548,537,561,630,626,559,490,582,645,632,547,396,505,545,526,446,399,431,495,498,435,459,447,529,533,480,559,518,607,622,573,630,623,702,713,658,640,680,749,750,681,580,677,735,713,629,554,613,672,663,591,528,589,657,651,577,509,557,617,613,547,550,545,620,632,580,586,598,673,678,620,579,622,684,681,615,583,616,684,691,631,568,623,689,690,614,533,595,651,649,579,573,597,663,669,613,577,628,692,685,621,537,591,654,654,586,507,562,621,619,553,401,476,543,549,476,302,409,494,492,393,102,248,210,145,112,627,256,521,735,745,498,576,595,585,536,486,523,585,586,533,446,503,564,571,505,405,469,519,520,455,432,418,482,507,468,434,461,530,541,487,376,445,494,499,437,360,391,449,463,412,403,384,455,480,441,500,442,522,555,523,599,542,623,660,629,613,634,703,723,667,589,626,682,696,644,561,604,667,675,618,544,580,636,644,599,503,560,614,622,558,484,516,574,586,534,496,503,571,589,543,489,510,571,587,536,517,511,578,601,558,520,539,599,615,566,538,545,616,637,587,542,561,621,637,587,525,557,622,633,580,529,541,607,625,579,521,546,601,619,570,520,538,600,619,572,509,535,596,612,563,485,518,575,589,539,480,495,562,581,536,497,497,562,586,542,482,515,575,592,543,427,476,519,527,480,451,435,488,512,479,497,479,544,570,537,522,509,576,608,571,518,541,604,623,573,421,507,536,559,517,126,396,387,324,191,821,111,297,545,726,598,808,782,732,655,572,609,664,687,637,619,566,607,644,639,658,650,721,752,712,612,660,704,718,670,576,620,676,689,634,526,574,619,639,591,479,524,577,582,537,491,484,540,566,533,560,515,582,622,601,677,589,670,718,709,722,702,766,802,770,700,726,778,798,754,686,702,755,780,739,664,687,735,761,718,642,665,714,739,701,637,642,691,717,688,622,639,691,716,678,599,622,668,695,659,578,598,645,667,632,558,578,625,652,610,518,563,609,613,573,519,521,571,601,571,521,519,572,608,575,551,534,595,628,596,572,558,614,650,618,586,581,631,664,639,617,594,647,683,661,579,621,667,684,639,528,566,600,620,585,562,522,567,602,598,601,569,627,667,644,598,603,649,680,651,580,599,649,681,648,584,543,564,671,692,188,490,431,358,290,847,197,433,679,853,518,742,680,640,581,504,505,546,566,546,488,511,562,594,556,464,488,534,561,518,447,458,499,529,498,407,436,474,498,463,383,395,433,459,433,554,451,516,577,578,645,573,639,692,686,661,654,707,742,717,627,648,685,715,687,594,613,652,683,653,532,580,616,638,597,503,521,562,592,560,496,497,541,574,553,493,486,530,565,543,500,486,530,564,544,515,494,538,581,563,507,506,548,586,563,482,492,530,568,542,455,471,510,537,509,438,445,485,517,494,427,429,468,503,484,467,425,472,525,516,393,453,483,502,462,384,365,401,441,428,468,385,448,513,512,504,468,521,568,554,494,494,533,571,545,423,479,518,554,514,291,405,452,459,402,249,198,158,171,146,646,462,714,862,798,519,564,567,592,572,471,499,524,551,533,449,451,476,515,501,448,435,473,511,498,433,427,462,503,488,414,421,454,484,467,375,396,426,458,435,340,344,370,407,393,389,330,371,422,422,509,393,447,510,527,603,520,575,635,639,585,590,622,662,647,537,554,583,619,601,497,510,539,575,560,465,470,494,535,520,388,432,446,467,446,402,370,407,456,450,408,383,415,463,455,394,390,424,467,449,416,382,420,467,464,414,401,435,477,468,411,395,426,467,456,394,388,418,463,452,417,367,395,448,455,382,401,432,467,444,349,348,372,413,405,453,401,440,497,501,436,430,460,503,491,270,322,336,390,355,704,155,384,623,768,456,579,524,527,508,404,372,399,443,446,393,380,409,457,449,359,358,381,424,417,346,330,351,397,392,370,326,351,404,410,470,358,396,460,489,592,472,524,594,621,617,573,612,665,666,587,581,605,649,643,548,549,567,610,606,507,514,536,574,563,474,468,491,535,529,460,440,463,513,514,443,427,447,496,497,452,414,439,495,502,449,422,442,495,499,460,417,439,489,501,449,432,453,500,497,460,428,462,518,516,402,421,436,470,460,384,366,390,434,432,448,368,417,487,500,461,415,443,500,505,460,435,451,495,508,364,421,434,461,420,163,336,320,321,274,515,621,778,767,648,433,438,434,476,476,416,394,407,456,459,410,382,401,437,444,423,379,389,435,451,442,403,424,474,487,402,405,417,456,454,349,353,368,409,408,349,296,303,356,376,418,326,354,416,444,544,402,440,512,553,598,528,552,617,639,584,559,579,626,630,558,539,553,605,614,529,517,530,580,583,456,476,483,524,520,425,394,399,446,457,473,406,434,488,509,476,441,456,508,518,497,443,465,517,534,498,462,476,526,540,510,459,474,525,542,491,477,492,534,539,427,439,441,483,482,458,382,397,452,481,501,423,442,507,533,457,451,457,503,511,376,382,381,449,455,199,298,247,231,243,786,219,423,669,838,485,619,532,529,524,463,438,447,492,503,446,421,432,482,491,422,399,402,446,463,381,374,373,411,423,333,341,349,391,399,314,280,288,339,357,298,264,263,308,330,341,258,280,326,358,456,311,343,418,463,579,438,480,554,594,606,549,571,621,640,594,556,567,625,641,564,540,545,592,606,506,510,507,547,559,360,441,424,446,428,278,285,278,317,325,266,226,229,284,308,289,219,232,296,326,300,235,249,309,336,345,255,264,325,361,357,309,323,379,401,387,304,321,381,415,434,340,344,402,447,503,403,420,484,526,507,461,468,524,546,488,455,464,512,532,443,414,393,459,503,171,365,297,257,204,838,149,331,577,782,601,731,654,651,649,569,541,536,585,608,555,510,509,560,584,523,500,503,548,565,526,467,468,524,560,513,476,479,525,552,463,455,455,492,502,446,409,414,453,476,485,404,418,476,508,574,452,472,540,591,647,545,566,626,663,687,610,620,675,712,683,637,645,697,720,677,642,645,689,705,680,628,630,681,713,699,622,631,693,731,700,643,644,696,731,684,645,643,687,718,658,632,635,672,690,555,596,577,597,596,579,506,516,569,606,612,542,562,624,643,716,586,611,685,733,726,675,683,731,760,711,675,685,734,762,634,639,630,666,679,581,571,567,603,617,664,540,552,611,662,629,634,633,666,674,554,565,548,576,592,648,128,108,195,441,624,575,571,616,653,563,517,516,556,587,642,518,520,587,646,636,601,602,645,671,593,580,563,600,628,580,536,526,567,599,459,528,489,497,501,420,376,351,390,431,493,383,394,459,508,524,451,456,503,545,546,482,481,530,566,553,501,507,548,582,570,500,497,539,581,584,527,520,570,609,553,530,517,549,583,553,495,488,533,571,541,506,499,539,571,562,500,503,542,579,558,518,521,557,581,549,503,498,536,571,583,502,500,540,586,553,461,448,485,541,630,534,533,579,632,662,605,601,632,666,658,622,615,652,682,559,597,548,549,590,180,453,383,318,245,830,125,147,369,633,558,818,699,628,598,497,478,461,490,516,478,449,432,467,500,454,431,418,448,473,426,409,399,420,445,391,381,370,392,415,352,343,322,340,360,399,316,312,355,400,497,376,383,432,489,594,480,493,539,593,627,560,555,592,635,654,592,586,621,660,660,613,607,639,675,614,616,588,606,631,620,572,560,587,627,605,581,570,593,621,568,556,537,556,583,560,528,513,542,572,559,520,506,532,563,603,530,528,561,601,615,573,562,588,625,609,578,568,597,623,603,567,548,573,607,614,563,552,580,620,596,580,563,583,610,548,551,527,546,569,528,503,479,494,521,559,511,502,524,556,541,528,510,525,555,459,485,450,464,483,339,408,361,333,345,155,286,253,248,229,700,116,108,261,509,616,795,741,673,640,622,584,572,598,627,525,570,541,543,550,475,472,441,453,481,463,446,429,447,473,456,430,412,431,463,428,418,398,420,445,386,386,361,374,396,415,353,344,372,409,493,392,395,435,482,601,474,480,526,580,680,586,586,615,664,719,663,658,692,726,669,678,642,656,684,618,627,598,607,624,578,578,548,559,588,562,542,522,539,568,531,528,507,516,540,539,499,482,503,536,538,508,489,509,545,492,503,481,488,506,478,453,426,441,480,469,439,423,438,467,480,435,416,436,475,494,453,436,453,485,512,476,469,490,524,489,473,447,456,482,496,456,435,448,482,548,485,473,495,536,521,525,494,499,527,504,484,460,472,502,441,469,431,402,426,135,379,302,260,205,667,110,104,177,435,540,791,728,628,582,498,488,462,478,505,473,461,433,438,470,454,431,408,420,455,404,393,364,375,405,380,374,347,359,392,322,306,281,293,322,512,384,388,429,490,569,496,488,513,559,576,545,523,543,576,551,538,511,518,550,511,508,472,485,509,498,476,447,460,495,488,455,431,446,485,483,453,426,444,482,514,457,439,460,499,495,475,447,458,491,453,474,439,437,454,451,420,381,390,429,485,438,413,426,467,487,468,447,453,483,475,457,427,433,470,417,432,376,361,408,141,346,268,217,173,790,114,106,276,545,548,838,708,601,564,528,514,483,489,521,499,491,457,465,498,467,462,430,431,462,424,430,386,387,417,384,386,350,350,379,346,353,313,308,344,301,305,264,263,292,342,275,246,270,319,450,337,323,352,412,577,445,442,479,542,622,565,542,558,607,624,599,572,576,612,599,590,549,560,589,554,565,527,526,550,520,517,483,483,517,500,490,454,460,488,488,467,434,441,476,485,458,427,437,477,485,458,424,435,473,489,459,428,438,473,500,467,437,449,487,496,472,443,454,491,499,466,435,443,480,505,475,448,459,491,482,466,431,435,471,454,449,412,416,447,510,438,423,448,490,500,489,471,473,495,475,465,428,431,466,416,453,422,418,430,250,396,345,300,302,425,159,117,106,208,678,601,751,803,755,575,597,544,538,568,540,539,501,498,530,524,509,475,476,510,469,478,414,403,444,467,449,419,420,450,409,415,378,378,401,381,377,334,330,361,418,359,330,342,387,527,409,391,422,482,595,527,508,530,578,587,567,536,539,575,548,558,516,509,537,515,506,460,461,492,504,492,457,457,491,497,479,440,445,480,479,456,407,415,458,481,456,421,423,458,495,464,433,431,471,465,472,438,431,446,493,450,420,427,464,494,471,433,441,472,479,469,426,429,461,456,446,405,406,435,407,430,387,377,395,381,379,338,337,362,459,376,363,379,424,484,451,426,428,465,479,464,428,427,459,401,460,420,407,407,220,389,344,297,283,337,141,112,105,125,643,555,732,785,721,538,560,499,495,526,518,519,475,466,497,489,492,448,439,469,477,470,430,421,454,418,434,373,364,393,383,392,349,340,367,334,356,308,297,314,329,309,266,273,301,358,321,289,283,322,486,355,341,366,429,594,495,485,499,552,611,590,553,553,587,596,588,552,539,569,595,580,549,548,580,571,575,533,527,552,549,541,498,491,523,531,525,481,476,509,517,518,484,467,491,510,499,458,455,483,518,496,459,463,491,516,500,462,457,488,514,500,460,456,485,498,480,435,425,465,443,440,390,386,414,606,533,522,539,577,592,591,549,536,564,553,580,539,534,549,381,514,489,475,430,120,260,149,116,105,864,314,544,791,885,612,747,625,574,588,567,595,547,529,544,525,546,499,479,497,506,510,470,451,479,468,487,437,424,448,417,443,395,372,396,359,394,343,323,337,336,335,292,277,304,346,333,298,286,313,449,351,328,338,388,589,477,476,492,539,598,589,553,542,566,572,578,542,527,547,539,556,512,492,511,513,521,476,461,487,509,506,467,450,476,496,493,453,438,464,493,491,452,437,461,501,486,448,435,463,509,493,456,445,471,513,505,467,460,487,512,499,463,448,476,532,504,463,458,493,492,526,482,460,473,453,468,415,396,423,506,439,410,414,464,545,503,476,473,509,536,533,491,473,500,501,527,490,474,491,380,458,428,423,410,102,286,160,117,106,844,221,455,711,861,571,717,594,536,545,548,559,517,496,518,521,535,491,472,491,494,510,470,443,462,474,488,451,429,448,437,457,408,390,408,386,417,367,339,358,350,367,315,290,311,402,353,325,316,349,526,421,405,413,465,668,645,616,601,627,655,671,628,609,626,609,644,599,570,584,570,597,551,524,542,544,556,511,488,512,548,543,503,488,512,547,545,503,485,509,551,543,503,487,510,511,548,506,474,483,539,504,466,447,481,559,554,528,506,524,497,545,488,454,467,549,494,453,441,482,582,561,525,514,547,552,572,520,489,514,543,545,506,484,502,470,524,450,420,456,149,416,323,217,149,851,117,186,410,668,628,856,717,616,601,608,623,585,559,575,576,605,562,533,545,526,571,518,487,499,497,514,468,443,465,469,492,450,423,439,370,399,348,318,332,479,414,388,380,417,611,504,497,505,551,666,628,604,590,623,638,666,621,590,605,604,631,591,557,567,574,596,555,527,543,552,565,526,501,513,539,550,505,478,499,530,541,503,474,489,542,536,504,483,505,528,548,515,486,495,568,530,499,484,517,576,574,538,509,536,494,518,481,450,462,560,506,500,493,517,262,482,426,349,313,381,166,120,105,136,677,624,803,821,742,573,618,556,519,538,542,569,528,496,512,526,540,508,482,491,506,526,488,462,475,451,499,456,419,425,414,448,409,378,389,357,411,368,329,333,351,351,315,293,307,418,365,342,328,357,545,448,435,435,477,648,580,574,567,600,642,665,633,603,615,603,641,600,561,571,571,601,560,530,536,525,570,524,486,493,520,528,489,459,477,524,527,497,469,482,523,535,498,466,480,525,534,503,474,490,527,536,505,477,491,526,531,496,469,486,527,539,506,473,487,552,541,515,499,515,503,553,515,479,476,478,504,472,438,447,524,486,465,456,480,548,542,525,505,509,538,551,523,494,506,473,545,508,471,470,323,470,451,397,349,155,244,144,112,104,755,383,618,798,824,576,674,589,538,540,549,582,546,509,516,515,553,513,476,480,492,526,490,453,462,459,494,456,421,426,417,462,420,385,390,362,418,373,333,332,350,365,325,295,305,402,367,348,328,350,533,431,425,421,461,637,577,576,566,587,655,664,642,613,626,622,664,633,585,593,590,628,599,559,561,551,593,557,516,521,503,525,497,463,467,507,520,492,457,469,505,522,489,455,462,512,523,490,464,473,508,526,498,464,470,516,530,502,467,474,521,534,506,473,484,524,494,482,459,476,538,553,531,493,498,531,552,529,490,494,464,544,510,445,421,193,482,408,326,247,559,148,116,105,275,608,807,867,746,642,554,590,556,513,516,527,568,539,498,493,506,545,512,474,473,476,522,487,443,445,437,488,454,411,408,388,448,417,370,364,335,396,362,314,308,341,348,323,291,299,423,375,367,345,364,553,467,472,462,493,616,592,582,560,580,607,634,610,576,576,581,620,595,553,549,557,599,572,532,525,522,571,540,496,493,505,538,511,473,473,493,521,498,460,458,495,512,491,452,456,496,516,496,461,461,500,524,505,466,465,507,526,509,474,472,517,531,513,482,480,522,539,519,479,486,521,543,517,481,482,524,541,517,479,482,525,563,545,506,499,464,536,502,447,431,467,489,462,418,418,539,513,506,474,492,553,574,556,519,516,530,576,549,508,503,445,548,507,426,401,171,443,384,302,232,644,158,123,182,402,573,824,800,667,578,540,580,561,515,512,516,560,535,493,487,503,541,515,476,473,476,519,492,452,448,452,496,472,431,423,408,470,444,392,384,367,423,393,350,340,374,383,362,327,330,447,405,404,384,396,571,499,507,494,517,639,622,622,596,604,622,664,653,609,598,587,644,621,574,562,553,609,592,540,524,524,576,553,509,498,507,548,528,485,476,499,533,517,476,466,498,529,513,472,465,496,530,511,473,468,497,533,515,473,467,503,524,511,476,470,500,532,519,481,473,504,526,516,477,472,500,531,517,481,473,499,532,520,477,468,495,526,513,472,464,511,524,513,470,471,512,547,540,501,485,452,528,495,443,423,456,476,461,419,415,512,505,502,471,472,512,550,539,495,483,514,541,526,487,481,438,543,513,451,404,205,467,406,337,259,495,146,118,106,256,603,720,826,730,636,542,599,577,542,518,511,565,547,497,486,480,536,516,470,456,458,504,488,445,432,429,483,463,420,405,381,452,431,382,360,333,402,385,337,314,335,361,346,307,299,408,378,382,355,357,527,459,474,456,471,619,588,600,577,581,617,659,651,603,593,586,647,631,588,568,556,619,602,556,540,537,589,575,535,514,515,565,547,502,489,512,546,533,494,484,503,538,528,489,475,502,535,525,483,466,496,536,527,482,472,496,530,518,480,467,501,531,522,486,472,501,535,530,485,472,491,535,519,477,467,501,535,524,482,473,496,535,521,482,467,499,532,520,481,468,512,528,523,483,475,494,546,536,495,477,449,513,491,441,421,488,487,482,447,448,518,531,532,496,491,507,555,542,501,483,502,541,534,493,477,450,524,478,431,435,158,447,391,262,167,824,135,208,394,623,541,845,720,593,533,521,569,559,515,494,501,554,539,496,475,477,535,518,474,455,458,511,496,449,435,423,488,477,429,407,377,452,440,387,362,344,409,391,340,317,368,381,374,341,331,461,417,425,403,408,579,520,541,530,534,620,633,636,605,591,599,660,651,602,574,579,630,623,577,560,559,611,602,556,534,524,587,568,524,502,491,554,543,499,477,491,531,525,483,464,496,533,529,489,470,505,537,532,495,481,501,542,535,496,480,501,537,532,494,476,503,539,535,493,476,502,541,540,500,478,504,543,540,503,484,503,544,539,497,479,476,560,548,498,465,496,486,493,477,470,526,542,549,520,504,516,561,556,511,491,488,552,544,503,478,395,489,473,445,405,137,389,316,185,132,777,278,493,642,764,544,719,645,564,527,522,583,577,532,503,500,558,551,504,478,478,536,530,487,461,463,514,503,462,438,422,494,486,436,406,372,453,440,391,363,334,400,390,344,316,374,373,375,348,338,470,424,440,422,423,594,537,569,556,554,631,646,661,625,609,607,669,662,616,590,573,643,637,584,556,544,605,602,557,529,523,581,576,533,505,510,560,558,512,488,505,549,546,509,484,506,543,543,503,485,505,545,545,502,480,497,545,544,504,478,502,539,546,509,481,507,542,541,503,481,500,541,539,501,478,500,540,547,509,481,495,543,542,503,473,499,536,532,502,479,509,537,534,498,480,491,558,559,515,475,436,515,502,449,417,453,471,467,426,411,506,509,517,486,471,494,550,550,505,480,127,423,395,293,187,485,542,540,498,469,461,522,520,480,450,429,500,496,454,416,378,467,460,413,375,344,359,364,334,314,419,394,412,390,380,553,489,517,511,512,626,616,642,625,601,613,669,674,640,610,576,648,647,607,568,553,616,618,577,541,525,586,588,550,510,513,562,564,528,500,497,549,549,508,480,491,536,542,509,477,491,530,534,498,473,488,533,542,506,473,494,536,545,506,473,494,533,539,505,476,490,539,544,505,478,489,529,537,507,474,511,527,536,505,477,492,559,564,518,482,444,523,515,474,432,470,478,477,446,434,513,516,531,507,491,505,556,561,523,494,493,543,548,517,482,417,518,491,431,414,167,414,380,278,172,827,166,247,436,639,534,871,755,624,537,509,567,573,539,506,488,541,548,515,478,466,530,535,496,459,443,502,510,473,441,425,477,486,448,415,364,452,452,404,364,443,393,420,411,402,605,663,672,639,596,577,641,648,610,573,549,614,623,588,548,514,581,592,559,519,496,550,561,525,488,481,541,546,510,471,479,528,542,507,473,488,521,536,508,474,492,527,540,512,479,497,536,545,517,486,494,533,548,516,485,496,537,550,520,487,517,540,560,539,506,464,554,561,517,466,438,494,506,471,430,496,488,521,510,484,519,546,565,542,511,510,554,568,537,501,432,547,562,522,458,308,474,494,433,358,336,276,235,196,163,641,591,799,861,743,526,609,592,554,520,500,562,573,535,495,484,537,549,518,476,468,526,536,502,463,442,504,514,481,451,400,472,479,448,403,348,432,435,393,345,331,381,394,356,318,388,380,406,387,364,514,450,490,485,478,605,579,617,613,592,615,653,676,652,615,579,647,663,632,584,559,615,631,599,560,524,592,604,572,527,503,562,576,541,503,495,541,556,534,494,494,530,552,524,488,491,532,553,525,487,498,535,557,526,491,509,539,560,532,499,500,544,563,536,497,533,544,569,548,520,492,570,580,543,496,453,518,524,490,451,489,487,502,485,471,525,537,567,553,523,515,559,576,549,509,485,553,570,538,494,356,486,484,476,409,111,337,284,173,122,809,255,504,686,811,543,746,685,606,547,520,581,598,569,528,494,550,565,536,497,468,527,542,509,468,445,503,517,491,444,407,475,488,460,416,324,381,396,370,328,363,365,393,379,351,470,413,456,456,444,603,533,592,597,580,634,652,681,666,635,613,665,685,657,612,574,638,648,621,583,546,599,622,599,553,519,576,598,571,527,505,555,575,545,509,495,537,562,543,501,500,530,554,536,498,494,537,564,542,504,499,528,549,537,498,505,534,555,535,498,497,550,574,551,502,443,522,544,507,453,458,474,498,475,443,513,512,544,536,509,514,552,580,563,520,499,543,565,545,502,459,528,531,478,452,128,454,431,335,198,745,118,135,302,516,550,871,834,700,591,513,568,593,564,527,498,547,573,551,510,473,519,544,526,483,449,497,522,507,465,418,476,501,477,431,374,437,463,440,388,325,397,414,390,340,353,356,390,378,350,438,389,431,437,425,569,492,556,565,556,631,617,665,659,633,609,657,680,661,617,579,629,655,637,590,529,574,598,582,543,497,548,570,545,505,485,524,552,542,495,484,512,539,519,488,490,513,541,536,500,464,530,554,537,489,493,480,533,536,501,518,527,569,563,529,504,539,562,554,517,439,533,560,536,459,288,483,499,444,359,447,250,266,216,241,622,702,858,872,724,540,594,604,590,553,517,559,586,573,532,489,540,562,537,501,467,512,538,527,485,454,494,520,504,465,419,475,498,480,435,373,432,452,432,391,374,386,409,402,373,432,405,445,448,424,565,484,543,564,556,635,614,661,667,642,607,659,686,671,626,577,622,646,632,593,550,593,624,612,568,524,568,592,578,538,499,541,562,552,513,492,520,542,541,506,481,512,538,524,492,480,506,532,528,490,504,510,548,542,510,505,541,577,565,521,458,520,539,519,471,467,481,507,492,455,514,515,563,554,521,514,547,580,565,530,512,537,569,565,524,474,535,549,503,473,216,482,483,418,314,688,225,255,371,533,565,836,832,726,619,527,571,597,588,547,492,547,571,556,514,458,508,534,520,479,441,477,506,490,459,407,458,481,470,426,359,422,447,434,386,304,372,389,371,322,319,325,355,355,328,594,571,618,629,604,573,617,649,642,601,545,589,620,609,568,511,561,585,576,534,475,524,551,545,500,456,493,527,514,473,432,473,500,491,450,428,452,485,480,448,419,448,477,472,434,443,438,478,491,462,389,454,485,472,424,354,394,415,408,371,415,381,438,455,431,452,452,498,500,471,442,468,500,496,463,384,457,491,482,426,256,428,483,452,367,174,172,121,106,102,562,398,641,764,674,464,513,514,506,483,445,481,513,507,466,435,464,494,489,457,422,452,488,487,446,398,438,470,467,427,363,413,441,436,389,316,372,398,390,347,308,326,357,358,326,382,338,386,399,382,520,422,481,515,512,605,559,612,633,615,606,625,667,666,634,585,617,646,648,612,570,601,632,629,603,562,586,617,619,582,536,581,602,601,557,515,545,576,574,536,491,534,561,548,518,480,501,535,534,503,506,495,530,531,508,523,543,585,584,546,450,530,549,534,480,453,459,491,484,455,488,488,530,534,507,469,514,548,543,504,470,482,521,519,493,378,480,480,428,390,153,369,358,322,225,703,154,148,288,489,469,837,782,650,530,438,465,498,505,469,426,456,490,491,455,448,440,473,489,462,400,461,493,480,433,368,406,434,434,395,325,376,402,393,353,294,333,356,353,316,319,305,345,355,335,414,343,392,418,411,559,469,536,576,570,604,593,643,657,632,559,616,647,642,601,497,556,571,568,527,478,505,538,542,507,455,486,522,519,483,442,465,495,501,465,448,459,498,502,472,456,465,502,506,479,456,467,499,510,481,461,472,511,519,488,465,475,515,521,490,466,484,526,535,499,413,470,497,491,444,414,422,456,461,431,465,449,496,506,485,478,490,531,539,507,479,487,522,533,503,425,487,509,478,438,154,415,412,368,261,637,136,150,257,453,536,804,823,724,607,504,531,561,573,536,480,514,547,550,513,463,492,527,527,494,437,473,503,508,474,404,446,476,478,442,355,406,435,435,395,309,354,381,379,343,323,317,354,367,343,402,346,393,419,409,531,435,500,539,537,588,562,614,637,613,570,597,632,638,604,541,574,605,609,575,509,546,576,582,545,489,512,546,553,518,475,499,532,537,507,470,481,515,526,497,466,479,513,521,494,461,474,511,521,488,465,473,514,524,494,472,479,517,528,500,478,483,523,535,505,498,488,527,544,525,522,536,573,586,555,501,529,566,575,544,372,473,489,509,457,109,325,283,202,135,849,208,479,718,862,564,750,689,648,601,536,566,592,605,572,505,540,570,579,550,479,503,531,539,510,450,481,512,518,487,411,451,478,482,448,369,413,443,447,414,347,370,397,401,374,395,358,398,424,411,524,424,482,523,527,656,559,626,671,666,709,680,725,751,734,695,715,751,763,734,675,701,731,741,714,606,671,688,685,649,497,591,604,595,546,462,492,519,527,496,480,471,501,518,504,485,491,524,536,510,505,494,530,548,529,499,514,548,560,532,482,504,531,539,515,427,487,521,526,475,361,411,427,430,398,360,366,398,408,385,399,368,401,423,413,410,420,458,473,448,364,400,414,415,392,417,370,404,436,425,488,440,485,516,510,506,498,530,546,531,478,511,539,554,524,310,439,428,437,396,105,269,220,147,113,821,104,294,546,768,540,732,669,622,577,512,536,567,575,548,496,512,532,545,524,476,497,527,543,518,369,462,465,459,422,286,348,355,360,338,205,259,257,257,235,288,217,265,297,298,419,321,377,419,422,519,445,488,525,524,619,536,583,620,626,665,641,678,701,687,589,660,662,658,628,535,581,595,600,574,485,529,547,547,513,503,488,525,539,524,486,501,518,525,509,497,492,520,537,521,499,493,520,544,527,503,503,539,553,534,481,494,515,526,509,476,482,500,514,503,461,479,501,511,488,453,460,487,497,479,470,458,479,491,483,480,480,508,521,509,497,482,507,527,515,558,515,556,585,582,525,560,575,582,552,544,526,553,573,558,587,560,589,607,599,572,584,609,625,607,542,559,574,589,573,501,539,551,534,506,224,493,470,436,335,648,187,153,223,434,549,832,868,763,639,533,512,523,545,549,456,521,527,525,495,371,444,450,450,417,298,348,352,352,328,258,287,310,319,295,211,242,253,261,245,190,206,220,238,220,197,190,215,233,220,263,202,236,265,271,411,284,335,384,403,519,444,489,527,531,507,513,534,545,532,479,499,515,524,512,469,474,496,512,498,420,454,466,471,450,390,414,429,440,423,369,360,382,404,393,342,325,351,372,364,340,338,362,383,369,340,335,359,378,367,328,328,345,364,354,325,322,341,360,351,312,324,343,353,340,315,305,321,341,336,280,310,325,336,318,266,265,277,299,292,303,264,278,306,315,330,309,334,355,351,339,326,345,369,362,337,337,360,377,370,227,299,297,335,294,102,183,133,109,105,668,114,295,504,670,451,581,525,499,475,419,443,457,463,446,330,357,369,382,362,251,263,280,298,283,243,239,253,273,267,292,240,265,300,306,396,300,340,382,392,543,415,465,516,542,616,560,597,628,633,597,611,626,643,629,576,587,597,614,605,539,562,577,594,586,495,506,518,534,521,466,484,491,513,498,449,459,475,489,477,449,444,463,484,476,435,440,457,474,463,437,427,448,470,463,446,427,443,469,471,456,435,455,482,476,462,447,468,490,488,467,456,474,498,494,470,456,475,494,493,477,464,482,500,496,480,470,487,512,506,494,472,496,531,528,441,482,491,503,482,418,422,437,457,447,442,418,447,473,466,460,444,474,498,492,194,360,364,334,293,243,127,109,104,100,621,454,699,811,737,521,554,541,557,554,491,498,509,530,518,465,477,486,503,494,437,449,460,479,467,389,418,426,438,426,335,372,381,391,374,283,317,322,332,316,263,259,267,282,282,333,257,282,320,334,457,339,373,423,453,583,477,524,571,592,610,581,606,635,638,567,592,597,615,603,524,544,541,554,547,508,511,520,541,533,503,493,506,527,528,501,493,506,530,531,500,490,505,527,526,503,482,500,526,523,506,492,507,530,528,504,493,505,525,523,499,493,505,525,524,505,486,500,530,530,496,489,499,518,518,503,485,494,520,525,514,492,505,529,534,519,500,517,542,544,538,503,513,547,554,515,526,539,558,549,468,483,478,497,497,523,453,470,512,533,555,512,533,566,577,544,538,549,572,569,496,522,530,552,545,122,285,208,184,146,581,673,617,618,606,561,565,574,595,588,544,545,553,572,572,522,523,529,552,548,488,501,508,530,518,460,467,470,488,486,402,434,433,442,433,376,379,382,398,397,422,360,379,415,431,529,419,451,497,523,638,534,570,618,642,663,631,651,675,683,642,644,648,670,673,623,617,623,644,642,596,599,600,617,615,566,575,576,595,595,549,545,552,574,571,524,526,527,547,549,517,506,512,537,539,527,498,510,539,547,532,511,518,543,552,530,514,519,542,541,524,510,518,543,547,523,503,514,541,546,520,505,511,537,543,524,501,509,538,545,550,505,514,539,556,542,541,555,580,574,554,502,519,551,564,543,539,550,572,566,535,522,529,555,560,462,502,475,474,497,150,395,362,315,230,767,116,164,391,601,564,795,714,658,611,537,536,541,561,563,506,506,508,532,535,492,482,489,516,520,471,467,467,492,496,435,441,445,462,461,387,413,411,426,418,334,355,352,367,362,355,305,316,342,359,448,350,374,420,447,586,455,488,544,580,653,590,615,654,672,636,632,639,665,666,608,609,609,629,635,579,576,579,601,605,550,550,556,573,574,529,527,533,552,553,515,497,500,530,536,521,498,506,534,542,529,498,509,537,547,537,502,511,536,546,548,519,530,558,568,541,523,527,551,557,531,514,512,544,553,537,509,513,541,553,555,520,539,574,585,488,524,518,528,518,479,458,461,487,492,546,477,499,533,553,561,531,545,571,582,550,539,541,567,573,472,518,506,496,479,180,430,383,358,288,625,124,107,178,411,613,799,837,767,685,567,564,561,582,591,542,543,539,561,564,515,505,508,530,537,501,492,491,516,522,472,473,473,491,497,433,443,441,460,464,381,397,387,402,409,383,354,353,378,395,456,364,379,424,452,594,455,488,540,581,679,598,624,663,684,685,659,666,693,702,642,650,647,663,667,610,609,612,631,635,591,576,577,602,608,571,556,553,577,588,558,549,547,566,578,556,534,533,558,574,558,532,534,559,572,554,529,533,554,572,550,525,530,556,570,549,529,527,555,567,555,525,524,552,572,569,525,531,561,584,533,539,534,556,563,487,495,485,501,507,542,466,481,525,555,578,525,535,572,593,569,551,549,571,586,507,542,543,563,561,604,652,610,619,625,590,580,572,592,606,574,563,560,579,591,559,549,546,566,576,536,530,528,545,553,493,506,502,516,521,444,459,451,470,475,413,407,395,408,427,458,390,396,430,456,578,455,477,522,564,681,583,606,647,679,705,668,678,703,721,676,673,668,686,698,669,645,642,665,682,632,640,632,650,657,582,598,584,598,606,566,546,542,563,578,571,542,547,575,592,576,546,545,573,587,577,550,545,574,589,583,556,562,584,597,584,561,562,583,595,601,560,563,586,604,575,582,581,595,597,523,544,526,533,542,555,490,484,514,548,602,540,545,581,613,588,576,572,589,600,562,564,565,581,590,442,490,478,516,508,174,369,290,222,197,874,254,483,714,864,648,767,691,670,667,630,625,619,632,643,595,602,593,607,616,565,565,559,578,587,517,535,524,536,542,477,494,483,493,500,413,441,427,435,437,654,521,551,605,646,670,667,661,678,690,640,641,633,649,660,612,614,598,612,626,592,580,574,592,605,603,573,572,592,611,617,581,580,605,625,631,597,597,617,638,641,609,608,629,651,642,617,617,635,651,680,622,620,649,674,639,658,642,653,664,578,597,572,581,588,604,550,540,566,605,637,583,585,618,645,603,611,596,609,617,568,579,568,587,597,461,514,512,541,525,111,349,239,157,129,838,238,480,730,867,590,711,621,596,600,568,563,557,573,584,566,543,532,553,575,536,535,524,533,548,505,506,492,502,513,482,473,456,470,488,422,452,431,430,436,381,389,373,378,390,414,358,355,380,408,531,408,423,462,507,656,538,557,602,644,669,647,648,668,685,629,646,634,638,647,586,600,588,595,606,540,557,544,547,555,499,509,500,505,514,485,469,461,475,486,493,464,459,472,495,509,475,472,496,518,528,492,483,506,533,572,515,522,545,572,593,549,545,568,600,527,562,542,546,549,468,483,459,467,479,506,438,438,477,506,533,488,491,515,540,534,511,504,520,539,448,503,489,493,485,290,433,437,417,374,230,173,121,107,103,667,460,706,850,801,512,502,488,499,518,445,454,435,444,457,409,416,395,402,419,359,378,357,360,371,346,325,309,323,345,408,337,333,359,394,529,405,417,455,503,613,526,535,570,606,595,594,583,593,607,562,570,551,556,573,518,527,508,511,529,481,489,471,476,491,456,449,436,445,461,435,427,412,425,441,429,405,388,401,427,445,405,396,418,447,469,422,416,438,467,469,445,437,452,469,493,451,446,468,494,434,462,439,444,449,412,403,387,397,419,479,406,414,446,473,490,464,459,476,500,477,461,438,451,477,421,451,431,426,419,169,403,346,312,254,512,506,479,491,516,495,485,468,480,503,481,468,453,464,486,456,450,435,444,462,428,429,405,412,429,380,393,369,376,392,333,353,324,325,338,340,302,282,297,331,413,324,319,347,388,537,410,419,460,511,620,539,545,574,610,616,603,587,597,619,580,587,561,570,587,566,558,543,551,570,547,537,518,525,547,525,517,495,504,526,506,504,479,487,510,494,487,463,467,488,487,469,453,464,485,496,464,449,465,493,520,476,459,473,509,481,500,473,473,490,429,441,410,411,429,466,396,376,402,451,512,451,443,473,508,500,485,461,470,493,459,474,453,461,480,351,407,397,412,396,102,238,144,114,105,769,230,447,685,821,544,643,556,534,546,518,522,494,497,514,484,483,456,461,488,457,452,428,424,454,426,429,403,408,425,398,402,375,375,395,352,364,337,336,357,325,315,283,288,316,392,315,301,320,364,506,389,387,416,468,624,515,528,559,605,642,613,595,608,635,613,619,588,593,612,585,590,560,558,583,541,559,528,524,539,524,513,491,495,518,506,495,469,471,496,484,474,445,450,476,478,461,434,441,467,481,456,432,441,471,490,463,442,445,476,492,472,449,459,487,506,473,458,473,498,533,482,460,472,508,524,524,501,504,524,472,490,450,445,464,476,448,411,412,451,542,477,464,481,524,526,520,491,497,520,506,503,471,479,503,411,466,402,402,439,105,332,220,138,111,859,102,175,427,705,587,820,695,616,597,559,563,535,534,555,530,530,499,499,522,500,504,470,470,493,462,469,441,438,461,429,439,406,401,423,384,402,371,368,383,338,348,310,302,325,374,317,292,307,350,469,373,365,386,434,601,474,478,511,565,663,601,599,613,649,650,642,615,620,646,614,625,593,592,613,604,586,553,558,589,591,583,555,555,582,573,565,539,532,557,564,555,525,527,554,535,533,497,496,522,536,517,486,491,520,534,514,491,490,520,539,516,488,490,520,542,518,492,494,525,549,525,500,506,534,546,530,503,509,538,542,522,495,498,529,550,527,508,514,543,459,525,484,462,465,463,431,407,409,437,541,470,465,478,515,126,431,340,261,183,715,108,102,184,447,505,516,479,470,494,475,483,450,447,467,448,452,418,414,438,405,424,384,378,396,348,373,331,319,339,361,329,302,301,333,436,352,335,352,399,556,439,435,463,514,646,569,565,582,623,653,634,612,613,642,638,632,597,595,623,616,620,582,579,600,594,592,560,556,576,570,568,536,530,555,555,548,517,516,541,554,537,511,511,533,558,536,509,510,537,558,544,514,516,544,569,545,519,523,552,568,556,521,519,551,559,555,528,522,544,558,544,515,516,536,555,543,511,506,535,577,540,513,520,557,538,558,526,514,539,487,501,461,451,474,543,470,455,473,519,577,536,518,530,561,570,562,535,527,552,512,554,524,515,525,363,492,484,457,424,231,246,144,113,107,775,468,710,862,879,580,662,577,548,565,548,561,523,514,533,524,531,496,488,510,515,506,479,473,496,524,494,462,462,500,508,514,484,474,494,471,491,452,441,459,487,449,418,418,452,544,485,461,472,516,589,539,521,533,559,703,605,609,629,672,712,703,676,674,697,676,698,654,643,663,641,655,617,607,624,598,623,577,565,577,575,582,550,539,558,566,556,518,514,536,564,550,518,515,541,561,550,520,510,534,569,545,513,517,544,577,560,525,524,551,581,569,538,535,561,581,568,539,533,558,583,568,536,531,559,581,570,545,541,563,574,569,536,529,553,575,559,533,530,550,586,575,552,544,568,497,568,517,491,491,509,480,450,441,469,574,518,502,507,538,571,573,539,530,553,560,555,524,521,543,491,536,480,445,478,114,420,323,217,141,782,105,102,260,515,641,874,790,694,651,604,620,581,571,581,563,590,545,522,541,530,550,515,498,511,496,512,478,465,477,468,486,443,432,450,417,448,405,391,407,361,399,358,336,348,374,346,319,314,343,467,379,364,374,417,597,480,475,499,551,676,613,604,608,644,673,673,646,635,654,637,657,616,597,614,599,623,582,564,581,571,584,542,530,551,551,557,519,508,527,543,540,506,496,519,542,531,501,491,515,543,533,499,489,517,536,534,500,491,511,538,530,496,488,514,537,531,497,488,511,531,529,500,491,512,523,525,492,476,495,533,515,486,482,507,527,525,482,470,499,557,518,495,495,525,497,545,507,489,492,461,468,424,410,438,523,459,446,455,489,551,528,512,507,527,542,544,508,494,517,472,533,491,473,471,236,480,438,368,321,705,545,762,846,781,582,628,562,542,558,547,572,533,515,527,516,533,493,474,491,480,504,467,444,456,453,470,438,420,433,404,436,397,373,388,346,384,342,315,323,343,338,303,287,309,414,344,325,329,368,540,426,414,432,482,659,563,564,575,612,690,667,643,636,657,661,685,650,628,639,637,652,616,599,612,595,626,581,550,571,579,586,547,533,554,554,570,533,510,530,548,553,518,503,520,552,544,522,506,518,562,553,523,512,531,563,554,525,511,530,561,562,532,514,530,546,551,516,502,519,550,545,519,505,526,547,546,513,496,514,564,543,512,501,526,490,569,540,518,504,397,450,393,359,372,463,393,364,366,412,524,478,458,456,488,537,524,494,482,508,509,535,506,485,496,396,481,448,447,429,103,320,190,126,109,882,181,398,641,839,685,792,690,642,652,660,684,647,624,635,618,653,611,586,597,579,608,568,542,557,543,571,533,503,515,495,529,488,461,471,443,486,448,417,423,397,432,387,361,367,432,402,374,358,381,528,451,435,432,470,656,563,560,568,603,700,671,654,643,665,674,703,669,645,651,640,670,631,610,612,613,634,599,577,588,585,603,565,542,553,564,584,551,524,536,557,567,533,509,527,553,555,523,503,520,563,558,532,511,530,562,566,533,518,530,553,565,530,509,521,548,556,522,499,514,544,546,510,493,509,545,545,517,499,509,574,548,516,508,535,531,583,547,515,520,479,509,466,438,446,536,478,463,462,498,580,548,536,530,549,566,581,545,521,534,510,570,536,509,510,282,511,481,413,353,230,180,122,107,103,786,497,743,870,860,637,711,637,592,599,595,630,589,561,568,570,595,560,539,549,532,566,529,498,505,492,528,493,460,463,445,487,449,420,421,387,439,394,363,363,370,384,349,322,334,420,372,352,339,371,541,444,435,439,478,662,578,574,579,610,685,681,657,635,648,662,689,656,629,634,629,660,620,595,600,596,628,589,559,564,567,592,560,531,539,559,570,542,518,528,557,566,537,514,527,540,560,524,491,502,548,549,523,500,514,555,556,527,506,520,552,561,533,508,522,561,560,538,516,527,563,566,536,511,523,590,584,569,550,560,504,585,532,482,477,521,509,476,448,468,601,552,538,528,551,598,617,585,554,570,564,588,556,524,535,477,551,493,451,476,106,411,283,158,117,849,103,142,372,666,663,896,803,692,655,645,671,640,610,616,608,648,610,570,574,562,603,560,533,540,503,564,526,488,479,469,512,474,443,444,410,469,433,396,395,377,364,340,318,335,604,507,509,513,548,660,635,621,606,620,638,669,635,604,610,604,638,610,574,580,572,610,575,543,544,551,570,539,512,520,540,560,531,505,513,538,550,522,489,501,539,547,519,491,502,545,550,531,500,509,543,553,523,494,505,539,556,529,500,504,550,553,535,510,516,486,559,530,486,470,478,485,456,429,440,574,512,518,512,530,605,604,593,571,578,590,611,588,556,562,539,598,560,514,494,162,559,479,366,257,547,119,106,102,234,735,805,889,872,778,657,699,658,629,625,605,654,622,584,580,521,601,562,518,510,434,527,500,466,442,354,414,379,332,321,336,367,347,319,307,291,341,308,270,260,333,311,295,274,283,423,373,370,354,382,486,460,435,405,426,678,569,587,560,605,677,718,683,648,675,597,656,628,602,574,524,617,571,538,511,508,545,514,479,491,520,539,493,423,447,502,548,545,521,504,487,512,473,435,452,452,491,468,438,426,487,460,446,418,441,512,514,500,469,479,538,538,524,500,499,567,566,561,525,529,518,594,581,542,521,433,503,462,422,415,474,444,424,410,431,512,498,495,474,480,487,527,502,461,453,487,500,487,461,462,140,500,461,359,231,112,111,104,102,101,871,387,739,867,905,697,800,727,678,675,637,703,673,631,620,587,641,613,583,568,538,597,572,534,524,478,543,513,472,460,418,486,461,424,408,355,423,390,346,339,259,335,285,240,231,333,283,284,274,292,450,369,377,368,392,582,499,511,512,533,634,618,613,592,602,615,649,638,610,598,586,627,609,574,568,551,595,573,535,532,545,566,549,524,521,534,550,526,501,500,605,560,566,554,570,609,630,612,582,578,597,629,613,577,571,589,610,591,562,559,612,607,595,573,581,542,633,613,570,541,489,539,510,473,470,553,515,523,513,522,579,581,581,562,557,561,599,574,542,536,529,581,560,513,487,126,547,466,325,182,313,108,103,101,101,666,634,838,810,709,598,650,624,593,586,557,607,589,553,540,516,568,545,509,497,482,529,512,473,468,440,491,473,436,423,347,356,336,310,309,432,384,386,375,386,674,616,634,629,639,689,705,700,676,670,664,700,680,651,645,635,674,657,626,617,605,644,624,592,581,587,619,604,574,565,582,601,584,557,555,581,595,585,556,554,584,600,584,557,556,613,609,606,575,578,601,551,539,530,553,653,626,626,614,622,644,675,659,627,621,643,667,662,636,631,553,666,696,689,631,104,417,232,136,111,905,185,460,745,871,773,898,829,770,754,710,782,758,721,700,648,715,688,651,640,598,651,624,586,577,594,616,604,576,575,586,609,593,567,564,546,595,577,546,537,540,553,545,520,520,591,567,567,551,562,698,629,634,630,652,827,749,770,773,785,865,859,851,826,839,849,881,868,838,833,848,864,856,833,831,831,868,859,832,821,732,830,799,758,730,714,739,724,699,694,734,729,725,708,715,744,755,751,724,725,695,752,746,712,705,607,681,638,596,588,757,630,641,650,690,905,806,830,844,873,897,915,914,887,883,871,902,892,875,876,838,862,853,871,883,123,743,566,358,176,875,107,206,483,761,869,907,915,869,853,816,880,853,817,806,783,811,794,769,765,761,796,780,759,755,719,757,732,709,706,689,724,709,676,672,685,695,684,670,671,663,693,678,660,653,845,882,863,838,838,823,847,833,812,811,809,838,829,810,805,795,814,808,789,786,782,796,785,768,768,756,795,786,765,754,747,759,747,731,731,767,754,750,741,750,713,777,753,726,710,581,693,651,610,585,687,592,610,637,663,647,696,683,662,654,602,632,609,590,592,654,616,621,625,636,674,689,745,769,734,108,551,380,194,128,911,302,589,820,892,791,872,815,782,779,726,798,781,747,731,650,720,698,669,653,607,646,629,610,601,564,608,592,569,561,530,570,556,537,527,507,541,531,510,504,491,505,487,469,472,515,515,522,506,493,717,551,586,620,666,825,755,772,782,799,823,850,848,825,815,781,824,805,771,767,771,791,780,761,763,734,772,759,737,733,698,740,722,694,693,720,710,717,698,703,737,733,736,722,719,551,592,575,551,546,623,618,619,611,609,598,630,609,587,584,585,601,581,545,537,296,635,600,528,419,368,164,119,105,148,607,604,768,746,668,516,577,550,523,508,491,519,505,482,479,467,502,483,465,467,450,472,459,442,444,394,454,435,406,391,354,394,378,355,351,334,353,338,320,322,319,337,317,295,297,350,336,332,317,323,429,378,379,378,399,468,452,455,448,455,458,479,463,444,441,445,470,463,442,434,421,448,439,415,407,403,436,420,399,393,379,404,394,373,370,397,387,389,378,379,415,419,415,402,401,417,426,417,403,403,451,434,438,432,434,388,453,435,411,395,325,376,349,321,316,384,333,339,346,362,403,405,408,390,390,394,416,402,382,380,339,399,394,369,338,139,381,370,295,221,148,111,104,103,101,598,361,605,707,663,516,554,526,504,501,476,526,511,486,474,440,473,453,431,431,407,440,426,405,400,367,414,400,371,360,331,375,364,340,325,278,333,313,283,269,261,284,272,251,254,296,271,273,267,272,411,329,344,353,374,500,453,466,467,474,534,521,521,511,518,482,535,518,494,479,436,478,460,435,429,469,447,441,436,450,473,483,475,461,458,487,488,481,463,467,489,509,508,489,484,423,496,482,458,437,349,410,386,356,342,317,353,340,311,301,312,328,315,297,297,326,325,317,309,308,349,346,340,326,330,413,373,380,377,391,380,430,419,394,377,367,385,372,356,351,405,371,367,368,385,427,434,440,430,421,408,424,404,386,390,358,420,409,381,369,164,358,366,314,235,101,117,105,102,102,726,238,487,718,779,582,669,616,580,571,527,584,567,540,526,451,522,496,463,448,383,450,438,399,380,361,400,389,363,351,330,369,358,336,318,288,333,324,303,291,274,309,294,272,263,273,298,288,255,239,428,312,338,369,377,537,506,540,520,516,539,567,588,556,539,503,569,551,523,499,367,488,440,420,375,340,392,366,363,359,342,341,337,335,357,418,353,371,386,407,407,440,434,393,384,380,408,396,379,370,393,389,385,385,389,378,392,369,350,354,384,400,410,402,390,245,383,363,316,272,168,235,213,183,166,177,177,183,169,167,274,210,230,242,248,290,295,302,301,283,390,399,408,393,381,391,404,405,398,393,222,402,384,356,308,101,137,110,104,102,872,101,127,404,749,579,856,740,645,597,510,584,569,541,518,454,512,500,475,456,396,464,455,434,406,352,395,392,377,357,323,360,363,347,328,283,329,324,306,282,285,290,289,279,275,314,300,307,300,299,367,340,357,355,352,476,401,427,436,446,542,511,523,522,524,544,564,572,558,542,510,561,566,549,525,474,518,507,484,470,442,479,474,453,443,431,456,450,439,423,436,447,455,438,431,445,452,460,444,437,457,460,456,453,454,459,474,479,475,458,462,477,479,476,449,443,477,479,459,438,445,457,460,452,442,462,447,462,457,451,484,470,474,467,467,451,503,507,480,463,378,442,420,389,371,402,395,388,379,385,461,431,451,452,450,463,479,481,470,459,441,476,480,470,450,201,440,455,411,309,102,130,108,104,101,810,136,393,684,833,619,745,689,645,619,563,632,628,603,572,493,566,554,524,501,447,501,495,476,455,405,457,455,434,409,357,418,411,387,369,321,376,373,346,323,295,334,336,314,293,340,318,328,322,322,418,372,385,386,388,525,459,487,504,515,585,568,602,590,569,560,594,603,589,567,521,564,569,553,528,476,532,528,507,482,470,499,504,484,467,446,487,489,467,444,435,464,466,449,431,438,456,464,453,433,435,454,461,452,429,441,458,461,452,437,453,459,463,456,446,453,462,464,455,445,473,485,496,485,466,370,479,450,402,372,394,395,393,373,367,467,436,457,450,442,471,497,509,478,463,461,493,493,473,454,340,465,448,430,408,103,239,147,113,104,836,100,102,282,619,622,879,792,700,637,586,636,640,622,591,520,590,582,557,526,467,527,521,495,476,423,473,465,441,420,381,432,431,409,384,331,389,370,349,330,321,340,343,329,313,381,343,361,362,360,488,416,447,453,459,625,531,565,578,592,702,663,689,694,691,673,716,718,697,676,665,687,693,681,667,621,669,667,642,621,584,608,611,597,576,602,617,620,604,593,650,648,657,650,641,578,634,612,586,571,398,584,597,578,491,911,237,549,799,887,751,879,817,772,747,719,764,766,747,723,674,721,712,695,672,610,677,663,636,612,564,614,611,589,568,523,568,565,544,525,463,525,516,490,467,435,471,464,444,425,496,456,475,472,473,638,532,564,583,602,778,684,722,740,753,792,805,814,806,794,750,795,788,768,749,730,761,759,743,726,705,743,743,726,705,680,716,718,706,688,652,688,686,669,653,622,657,653,633,618,602,633,625,608,596,599,622,628,611,596,584,612,618,604,586,582,599,601,589,572,611,609,630,627,614,539,623,616,589,557,547,546,555,552,542,654,576,609,622,630,691,688,708,707,693,687,702,705,695,681,646,703,702,667,626,185,654,582,472,322,629,125,108,103,307,806,835,897,913,859,721,788,775,755,731,651,721,710,686,660,607,656,659,634,612,572,611,611,594,574,535,579,577,560,539,475,533,532,512,487,423,476,467,448,422,423,436,435,423,414,484,445,457,460,462,607,522,547,562,577,681,647,670,670,670,671,699,711,695,675,625,673,672,661,634,591,630,625,612,594,556,596,594,574,556,523,566,565,544,519,511,535,539,527,512,492,523,520,503,489,483,500,503,491,476,490,504,516,504,489,491,511,519,506,487,503,509,516,514,506,436,509,511,493,456,410,434,431,420,410,462,426,446,459,459,497,488,504,504,489,472,510,511,491,468,423,487,489,475,443,136,450,433,347,227,181,111,103,102,102,753,470,770,878,831,628,702,679,656,632,562,630,626,597,568,527,568,567,551,533,495,528,529,518,495,451,500,497,475,456,401,454,455,435,411,347,402,399,380,356,330,351,354,340,326,388,343,361,369,367,505,426,450,460,473,612,548,585,594,608,613,633,648,635,619,577,619,620,605,581,539,587,592,574,549,510,542,547,533,513,486,517,525,511,492,469,488,494,483,468,458,477,485,476,459,475,477,492,486,468,486,491,505,496,481,497,501,515,508,493,503,520,545,543,519,425,507,506,476,439,422,436,446,435,413,496,459,489,491,482,501,519,533,528,506,485,513,521,506,491,456,497,492,457,447,657,103,102,120,354,574,627,631,610,590,510,575,574,555,520,468,518,522,504,477,433,473,476,461,441,392,440,444,431,404,347,391,393,381,356,303,346,349,334,309,401,353,377,384,389,539,439,485,506,514,611,578,609,619,610,594,625,634,627,601,563,603,613,597,572,534,570,581,572,543,505,538,544,530,510,482,513,517,506,489,478,494,504,494,480,477,489,504,495,479,483,495,512,505,483,485,502,513,502,485,510,497,518,523,510,457,520,530,510,480,414,454,461,454,428,471,430,464,482,472,494,493,518,521,504,471,506,515,501,480,390,483,491,466,407,151,426,424,359,259,273,116,104,103,102,625,565,811,851,728,527,580,569,555,536,502,536,546,536,512,470,506,518,504,481,433,483,494,478,447,400,441,453,443,418,351,404,414,399,368,296,354,356,340,309,297,301,313,309,294,367,319,343,353,352,494,398,440,464,474,569,527,560,569,564,564,584,603,599,576,533,570,579,568,544,491,539,544,533,507,457,496,509,497,470,448,465,478,474,458,429,455,466,460,438,443,448,469,464,447,454,461,477,475,459,471,473,491,489,476,494,490,508,511,497,443,501,513,498,466,407,440,445,433,413,451,414,448,467,457,482,476,507,515,494,478,495,511,506,487,401,491,502,482,438,171,430,447,386,296,172,119,107,103,102,695,412,711,853,792,568,639,622,606,582,522,573,583,567,540,493,530,541,535,511,462,497,505,496,477,420,467,473,463,438,382,423,430,425,399,325,378,385,372,343,335,332,346,345,331,401,355,382,395,397,523,428,470,495,500,610,557,592,608,609,617,626,647,648,633,580,623,631,624,601,548,585,595,586,565,516,552,565,557,530,495,518,534,529,504,484,509,522,514,493,483,497,512,511,489,488,494,512,513,498,487,497,513,518,494,498,498,516,517,501,507,523,549,549,524,441,506,504,485,458,450,452,468,459,444,504,480,508,510,504,508,525,547,545,525,496,513,531,525,506,432,496,488,456,452,106,373,302,173,121,727,104,102,181,438,627,863,849,760,671,568,620,630,621,593,518,569,575,565,539,482,521,534,528,502,451,488,502,495,469,399,449,458,448,424,349,404,415,404,372,301,342,356,344,321,316,298,324,336,324,402,336,367,384,390,539,438,484,516,527,602,569,606,618,609,590,615,630,633,608,579,593,611,612,597,528,570,573,568,545,500,526,539,536,514,493,507,525,520,507,481,493,510,514,494,485,496,520,521,500,493,495,520,527,509,498,501,524,525,509,520,508,529,537,528,506,535,559,561,542,448,491,497,490,466,479,455,467,472,468,530,498,527,542,537,509,536,555,553,529,506,514,535,538,524,388,493,483,490,471,102,299,179,124,108,865,102,150,417,721,673,891,832,764,711,620,667,678,670,645,564,616,622,614,590,519,560,562,558,538,479,516,528,526,511,433,477,489,486,458,399,432,444,441,420,385,394,413,416,400,462,398,430,454,453,570,492,530,555,564,676,599,648,679,681,695,689,720,731,717,659,696,706,702,683,614,656,666,666,641,571,615,625,617,594,541,567,579,581,560,521,540,560,562,545,517,519,539,547,536,501,519,533,533,517,502,512,527,530,516,500,509,527,535,523,501,506,528,533,518,501,508,528,538,519,497,506,520,524,510,520,507,529,540,531,501,532,554,550,527,437,482,483,476,455,466,441,455,461,461,518,477,507,530,530,506,521,541,541,525,497,510,529,536,522,374,477,464,479,457,103,292,177,123,107,877,102,205,489,769,637,850,781,721,672,588,630,639,641,619,543,582,591,588,568,501,538,554,550,525,460,500,512,510,488,416,450,461,466,445,368,405,417,416,393,329,358,370,370,353,381,331,361,383,387,459,394,423,446,451,591,489,535,574,589,642,610,645,665,660,622,645,664,667,646,588,617,626,631,614,552,585,601,604,582,533,547,558,563,550,513,528,537,546,533,507,512,532,541,528,519,507,527,540,532,512,521,536,544,530,517,516,537,549,537,514,516,536,544,534,512,517,537,550,537,513,512,527,548,532,535,520,538,553,548,499,537,553,564,537,473,483,487,504,491,496,463,482,510,514,540,502,540,560,556,520,534,545,551,534,474,518,536,542,521,326,449,473,475,412,102,209,131,110,104,787,216,500,779,876,566,683,630,610,596,528,563,576,576,553,501,520,535,542,527,399,435,447,453,426,345,386,393,396,373,385,320,349,380,387,491,404,443,474,487,617,528,572,608,620,631,627,649,663,659,610,625,638,649,633,582,602,613,622,605,547,578,584,587,572,519,539,550,558,541,505,511,518,529,522,502,506,523,530,519,509,502,521,534,526,562,522,555,578,577,552,563,578,592,580,488,504,513,522,510,484,486,498,518,508,501,488,504,516,513,524,504,529,553,546,458,511,516,515,486,456,451,470,485,475,534,469,506,533,535,556,550,575,589,578,560,559,574,593,583,500,560,569,575,536,183,509,480,423,324,331,124,108,104,124,740,592,822,891,833,642,688,684,689,669,562,628,631,629,608,469,535,533,528,503,430,459,469,472,452,412,429,438,447,433,373,404,418,422,403,325,356,364,368,355,316,317,325,336,327,405,331,360,390,403,536,424,459,503,527,654,560,607,652,662,634,649,661,672,661,594,627,630,631,619,553,582,589,593,578,548,549,562,575,572,533,541,556,571,564,543,529,552,574,567,531,537,546,558,550,535,528,543,561,552,526,529,545,553,551,526,520,539,559,549,521,518,531,548,539,517,515,536,557,543,522,510,524,542,538,509,515,528,533,527,529,508,527,543,539,511,527,550,559,543,458,489,485,485,480,467,452,451,462,469,526,472,497,532,539,513,521,535,550,538,499,508,531,542,526,430,490,480,473,475,106,358,280,164,120,784,102,102,270,534,634,874,825,751,685,565,612,612,621,603,483,545,541,537,517,469,469,482,504,496,464,461,478,498,488,435,451,457,470,460,360,425,427,427,405,292,327,322,327,314,358,296,323,354,364,456,370,404,441,458,586,472,516,561,582,654,599,634,666,671,639,652,663,673,659,607,630,640,648,638,560,590,591,602,591,530,548,559,570,557,515,519,528,542,536,509,508,518,533,527,504,503,517,533,527,506,495,511,529,526,460,488,484,480,470,468,469,495,515,506,489,445,457,485,497,507,491,505,520,522,514,502,522,540,538,539,512,530,552,549,450,479,473,481,468,489,445,451,476,488,536,491,515,544,548,522,525,531,547,542,503,515,527,538,533,404,476,461,495,490,103,304,182,124,108,881,101,213,502,776,624,841,759,703,660,588,610,616,627,619,540,570,577,581,567,511,523,531,544,535,467,495,498,508,496,425,454,464,471,456,353,408,409,412,389,303,331,330,340,330,344,292,311,332,347,449,353,387,426,445,589,469,518,562,586,639,596,622,649,652,634,631,644,660,657,597,619,623,633,619,560,585,591,602,590,528,545,549,563,553,515,517,529,546,541,509,498,505,525,526,515,498,512,531,535,513,515,526,536,530,516,507,520,541,538,507,505,513,532,529,510,499,516,535,527,503,497,507,527,524,492,495,513,532,521,445,481,486,493,473,455,433,445,463,458,518,469,496,524,527,534,523,542,559,555,528,527,539,553,549,471,518,524,512,481,145,454,414,359,246,542,113,105,102,284,633,789,883,831,721,571,591,590,607,601,541,551,554,567,566,512,523,531,542,539,482,492,496,512,506,447,467,473,480,471,402,429,429,441,431,355,381,382,390,381,348,339,343,359,360,346,341,352,369,364,443,341,361,402,431,542,460,495,532,549,556,541,552,574,574,549,544,553,570,571,533,538,548,561,556,512,515,518,535,535,492,492,494,511,509,483,481,490,507,504,488,473,485,504,506,497,477,487,509,514,504,490,503,520,521,517,497,510,533,537,517,499,509,530,534,515,505,513,536,536,521,501,511,532,534,529,523,546,565,554,468,511,503,503,491,509,460,477,505,510,598,527,552,586,601,589,595,607,622,616,571,577,581,594,593,456,547,529,499,469,608,105,103,121,349,620,821,855,782,693,576,584,591,609,605,501,522,523,535,527,471,485,491,506,501,432,453,457,469,459,387,411,415,427,419,336,366,363,371,358,344,318,327,351,357,423,337,362,399,420,569,439,477,526,556,646,580,607,642,656,642,639,652,669,666,612,629,634,651,642,586,594,599,612,609,545,565,570,581,572,528,529,536,555,553,516,512,520,536,536,516,503,515,533,536,522,502,513,536,537,533,511,521,547,551,530,517,525,549,549,533,513,522,548,553,566,518,533,559,574,566,564,576,601,596,494,533,524,526,515,513,472,472,495,509,553,514,530,563,573,530,533,538,555,549,515,512,520,542,544,420,487,461,467,480,105,330,240,144,113,849,102,116,369,665,559,568,568,587,585,455,477,474,488,485,409,432,432,444,438,348,382,377,384,372,382,336,353,384,394,623,497,535,586,620,660,631,657,679,681,622,637,634,648,641,592,602,601,615,613,573,577,579,595,595,556,557,558,574,572,563,547,557,576,577,562,551,559,576,581,559,549,555,577,580,562,544,555,577,580,555,542,552,576,580,558,538,550,570,575,575,540,549,570,581,549,566,567,586,582,492,517,508,517,512,530,469,468,501,533,572,519,535,568,585,560,556,558,574,579,538,545,552,568,565,412,488,469,504,492,103,320,217,134,109,897,107,330,646,844,614,806,711,664,639,564,598,599,607,594,491,528,519,524,518,461,462,459,474,477,439,439,441,456,456,410,416,414,434,435,372,385,382,393,395,373,346,346,369,379,432,362,375,408,432,543,434,464,504,536,674,553,588,637,666,698,675,687,712,720,671,679,680,694,694,609,644,640,644,637,599,586,593,611,619,567,577,573,588,593,539,543,538,556,555,503,517,519,529,528,521,486,493,521,530,541,512,521,544,553,543,529,538,556,558,573,527,538,566,584,530,555,552,567,562,530,464,477,519,542,550,550,551,568,571,102,265,159,118,105,607,715,646,635,628,574,584,583,597,594,547,551,553,568,569,519,523,524,538,541,483,496,492,506,506,444,459,458,471,471,384,417,411,420,410,361,358,352,366,373,404,352,364,391,405,522,406,431,472,505,642,536,568,618,643,674,639,653,678,688,649,657,658,673,671,621,625,628,645,644,586,599,599,607,607,553,561,564,574,572,541,530,533,548,553,524,520,522,538,540,526,507,514,532,537,526,513,521,535,541,528,507,512,537,545,538,517,528,553,560,474,515,506,510,502,467,453,457,474,475,526,469,491,518,529,539,519,533,556,557,527,520,519,537,545,475,508,509,506,482,150,466,423,369,260,434,114,105,103,191,668,707,860,855,758,591,608,596,610,612,555,571,571,581,580,528,532,531,545,544,489,503,500,512,512,448,466,464,476,473,396,426,423,430,423,344,368,363,372,368,353,321,325,346,360,423,344,361,395,419,628,625,632,648,650,580,583,583,596,599,533,552,548,556,552,508,498,500,515,520,512,491,497,520,527,515,490,491,512,522,528,501,505,526,533,568,520,529,553,571,563,563,568,584,586,518,532,519,526,532,548,498,494,514,534,603,543,556,591,606,583,582,587,601,603,567,560,562,580,584,509,544,515,525,553,109,422,328,206,132,841,105,110,346,642,625,886,803,727,668,595,601,601,614,615,550,571,567,576,574,510,522,516,527,529,469,487,480,491,491,424,442,437,445,447,357,399,387,389,381,314,329,322,333,332,347,297,307,332,350,429,345,361,393,417,585,441,476,527,567,635,587,609,636,646,615,619,614,623,629,576,596,591,597,593,540,555,551,558,558,515,521,522,536,537,503,490,491,508,512,488,488,490,507,511,510,472,479,502,515,524,493,496,517,529,525,507,511,527,536,559,511,521,542,558,542,541,546,558,562,486,513,495,496,495,515,472,472,487,507,556,505,508,535,558,555,539,542,560,571,529,534,536,545,547,474,505,482,470,494,111,391,316,217,135,800,103,103,259,551,602,879,804,710,646,564,571,567,579,576,540,543,542,548,554,510,521,521,536,534,464,482,479,483,481,444,444,442,456,459,382,417,408,407,405,337,357,347,352,352,353,315,322,338,356,432,342,352,385,418,575,446,481,526,562,650,580,601,631,652,630,637,638,647,648,593,608,602,609,611,530,571,557,553,545,500,506,499,511,514,477,483,483,492,494,471,459,456,472,482,463,452,450,465,474,482,448,455,474,488,499,472,477,489,503,505,484,488,503,512,529,494,505,527,539,482,510,508,511,504,449,457,455,470,464,524,445,471,505,527,530,519,527,542,546,514,511,510,522,525,440,499,494,500,483,239,429,428,393,334,222,141,112,103,103,717,479,758,875,838,567,625,589,586,584,543,547,544,553,555,508,522,516,521,522,496,493,498,508,513,469,474,472,479,483,416,445,432,437,436,361,384,377,381,379,350,335,328,338,351,410,343,351,377,401,545,417,441,485,526,645,560,584,617,641,652,633,639,653,661,620,631,626,633,637,586,601,596,604,604,551,561,561,568,571,524,527,523,528,536,512,506,507,519,523,510,497,499,515,521,507,495,498,513,519,514,493,500,517,527,512,498,495,512,522,512,497,500,514,522,518,494,497,515,523,516,518,520,532,534,461,487,475,475,476,474,449,446,451,465,531,475,478,502,527,522,514,514,530,535,508,503,501,512,517,455,488,476,461,460,122,398,332,269,179,688,108,102,174,434,624,853,854,761,687,575,592,585,592,598,545,548,543,555,559,517,526,523,535,538,462,468,465,475,480,417,436,427,437,435,361,388,377,377,375,371,338,337,351,369,455,369,383,413,444,595,462,491,536,577,663,601,613,642,663,649,650,647,657,661,617,627,619,625,629,583,596,587,595,598,551,557,545,559,564,539,534,531,541,550,533,520,517,529,539,533,512,509,525,536,539,514,513,530,545,537,523,521,538,550,539,518,520,540,550,533,519,520,537,546,529,512,508,523,536,543,521,529,547,560,479,515,497,491,493,470,459,457,463,469,468,463,451,440,445,542,484,502,530,548,550,527,531,542,559,486,530,528,532,508,162,470,420,357,275,428,118,106,103,173,728,696,858,893,820,634,660,635,646,648,590,610,598,603,603,549,565,553,562,565,505,528,516,521,525,478,483,476,487,493,424,451,441,442,441,364,396,380,381,380,362,341,335,348,365,435,356,369,399,424,577,447,466,507,552,671,591,604,638,665,665,662,665,677,683,637,640,636,646,650,604,613,602,608,616,581,582,578,588,593,561,562,551,557,570,545,540,535,548,553,540,528,526,536,547,520,517,512,524,535,422,480,442,428,428,530,418,440,486,518,574,525,529,548,571,568,557,554,569,582,569,548,545,562,577,580,554,551,572,587,531,557,553,563,558,497,497,486,493,505,426,470,451,454,455,426,394,390,410,428,438,411,411,429,447,445,431,433,447,458,326,403,387,414,400,102,236,142,113,106,902,137,393,696,858,667,831,744,703,687,622,642,631,637,644,494,572,530,515,512,487,479,478,494,500,470,462,451,466,484,415,447,432,426,427,426,401,400,418,433,445,396,399,414,434,546,441,461,494,525,681,556,584,628,666,715,677,683,700,718,680,698,684,688,692,643,653,639,647,656,603,614,603,610,616,576,581,571,578,586,550,556,544,548,556,545,534,533,548,556,542,523,513,528,545,544,524,519,538,553,542,522,520,533,545,550,526,523,535,553,551,533,529,541,555,558,532,530,545,560,559,549,554,566,572,492,531,505,495,497,491,473,465,471,483,556,499,502,520,547,555,544,545,554,562,536,538,533,539,546,490,515,505,494,478,171,470,410,363,278,571,121,107,108,302,646,806,887,821,726,588,591,577,586,596,518,560,540,533,532,455,489,466,469,468,467,446,443,455,470,396,451,444,445,430,322,358,338,336,336,287,298,285,289,296,301,267,261,277,299,393,292,306,337,374,536,400,419,459,501,686,566,597,637,674,692,673,669,684,698,658,665,646,656,666,626,633,619,628,638,595,600,592,595,601,569,572,562,569,579,543,543,537,539,552,503,521,509,518,527,442,467,441,441,446,458,430,428,440,458,462,446,443,451,463,477,451,448,461,479,496,465,462,476,496,510,486,489,503,518,454,485,466,467,467,452,434,427,433,449,524,457,466,484,512,562,519,518,535,558,579,552,552,570,586,505,560,549,551,524,216,492,442,387,320,452,132,110,103,201,710,706,859,884,803,607,635,605,610,619,559,581,565,563,568,534,537,525,531,541,503,511,503,505,516,470,482,466,468,478,421,445,432,432,438,363,393,380,378,378,356,343,331,340,357,426,345,354,380,411,556,429,445,487,530,660,569,587,619,651,658,648,642,656,668,625,635,622,624,633,591,601,586,591,600,559,568,548,553,565,530,535,520,525,535,523,514,506,512,527,519,504,497,503,520,520,504,497,508,524,520,503,499,508,523,530,503,498,511,529,539,513,506,516,540,562,524,524,544,563,497,533,515,509,511,476,474,464,474,481,536,465,479,505,529,560,533,533,552,568,559,539,530,540,562,485,536,518,524,524,288,459,457,424,376,194,171,120,111,102,768,445,706,859,871,600,662,612,602,610,572,583,573,582,585,543,547,532,539,552,506,525,502,508,518,485,484,473,476,491,436,460,441,439,450,377,415,394,391,392,361,346,329,342,356,415,353,352,375,403,546,417,431,470,517,676,560,578,614,654,676,657,645,659,679,643,656,638,643,649,584,596,578,580,590,561,565,553,558,565,547,542,533,537,552,540,531,514,521,538,542,522,513,521,543,552,527,520,533,551,546,525,519,530,545,570,531,518,532,568,533,554,536,541,547,493,496,473,481,497,536,473,465,484,524,573,527,526,545,571,557,551,534,540,555,530,539,524,535,550,419,475,455,474,479,105,324,219,136,112,884,144,370,664,850,595,760,654,607,600,564,577,567,568,575,546,543,527,533,547,522,522,507,514,528,378,368,352,359,374,642,533,550,585,626,671,638,634,647,670,642,654,634,636,647,621,622,609,615,629,588,596,573,578,591,560,563,545,548,562,539,537,521,522,539,541,519,512,527,542,530,530,520,522,534,541,518,512,526,543,553,527,519,530,551,580,539,535,557,579,521,553,534,535,541,494,499,477,484,501,544,480,490,519,542,577,537,539,556,578,563,557,544,550,569,499,541,525,530,536,337,471,476,452,413,164,211,132,108,104,780,396,647,840,876,610,672,614,601,614,578,587,568,572,586,544,554,537,541,552,512,525,509,510,520,483,497,477,481,491,442,462,440,442,449,386,411,387,385,397,368,362,343,348,363,426,357,355,373,405,543,427,434,466,513,652,555,569,599,632,672,650,646,657,676,633,648,631,633,639,603,613,593,597,606,571,582,562,562,576,548,550,533,536,551,537,521,506,522,538,567,531,528,541,565,487,491,467,469,489,534,462,456,489,527,577,529,527,544,570,566,556,536,541,557,530,546,530,527,540,415,484,477,500,479,103,304,174,122,108,872,152,401,688,856,625,767,674,633,630,586,614,590,578,587,552,566,548,550,562,532,529,517,519,534,499,504,484,488,500,453,475,455,453,461,390,432,408,398,399,364,367,346,349,357,416,358,351,368,400,532,411,417,448,494,663,549,562,591,633,684,664,659,662,677,662,669,647,649,663,624,639,612,614,625,584,599,581,577,588,566,568,553,554,564,550,551,536,539,550,544,535,523,525,542,539,535,519,518,532,542,530,513,520,538,555,530,518,531,552,490,482,461,466,488,567,539,537,548,564,551,553,536,535,549,386,472,474,468,436,790,334,600,820,889,592,682,607,581,589,571,574,560,560,570,547,551,535,535,547,522,528,512,514,528,501,504,496,492,503,470,485,459,456,469,421,449,427,418,427,422,402,392,398,418,466,417,406,424,448,574,470,474,505,545,640,588,593,611,635,667,632,628,639,657,616,652,629,622,624,610,600,587,594,612,589,591,576,576,588,550,571,553,550,556,546,540,527,527,544,548,533,519,525,542,543,537,521,524,540,554,524,509,516,540,557,546,531,533,548,507,539,514,500,503,511,488,465,467,486,564,522,516,523,550,557,555,543,544,556,550,548,535,535,553,512,532,511,486,490,248,492,429,388,328,669,186,128,179,417,593,844,840,726,640,497,559,535,519,511,477,472,450,447,463,521,478,481,491,513,509,510,491,489,501,495,500,481,473,485,438,476,449,439,442,374,419,392,381,379,353,356,336,334,340,458,358,361,387,423,594,481,491,516,561,649,605,606,616,640,632,640,622,619,630,606,611,595,590,603,572,589,568,570,577,549,557,540,534,548,529,530,510,504,518,519,515,492,496,508,521,509,485,485,505,524,511,494,497,512,527,507,491,497,514,551,520,509,515,538,519,542,516,515,523,470,485,444,443,460,515,455,441,460,496,554,512,507,519,541,543,541,522,516,537,525,527,504,500,518,362,491,455,461,437,101,262,148,114,105,675,850,758,697,678,628,659,637,627,630,574,608,574,563,572,527,555,529,523,527,479,512,486,473,483,384,453,414,391,387,330,360,334,320,326,305,308,281,273,294,350,297,282,286,319,474,359,362,387,433,619,498,512,541,588,669,629,621,627,650,662,659,640,642,654,625,650,625,617,625,527,519,504,500,519,532,520,503,497,515,536,524,508,511,525,544,530,514,509,532,550,531,509,511,532,564,541,520,521,543,542,556,540,537,543,476,509,467,453,465,508,464,442,444,471,554,513,499,505,532,551,550,530,525,542,543,537,515,513,530,524,540,516,491,500,111,458,353,226,135,707,104,102,129,393,723,858,889,818,757,596,634,598,587,593,550,580,551,537,544,518,531,505,498,512,476,505,472,460,470,424,458,432,418,428,375,406,377,360,366,383,358,339,341,361,471,392,383,397,434,607,490,501,529,571,680,619,613,626,660,649,670,645,634,637,610,637,607,599,602,583,598,575,565,573,534,569,547,532,534,535,529,509,497,515,522,532,510,500,508,540,515,497,500,522,562,541,530,532,550,565,560,553,541,551,556,557,549,532,548,568,551,533,536,550,559,548,528,519,538,545,543,516,523,521,510,532,491,492,506,465,485,449,447,455,571,488,543,576,573,475,559,556,530,486,518,503,491,512,516,522,516,494,471,498,197,475,446,411,321,101,128,111,104,102,867,101,112,420,759,675,824,733,678,669,610,656,634,608,605,536,586,553,534,530,478,523,485,465,464,434,477,447,423,417,401,435,417,389,403,340,387,359,338,332,307,323,294,280,289,341,301,290,285,309,448,363,361,373,406,597,471,479,511,553,676,619,631,640,656,680,686,666,657,669,659,674,649,638,647,631,648,625,610,620,596,625,599,580,586,564,586,562,546,551,543,556,536,523,533,536,541,522,512,519,543,536,518,514,526,550,545,527,522,531,555,547,539,537,545,551,546,528,517,530,544,548,529,522,526,565,547,532,528,542,577,568,552,547,560,578,580,568,555,562,560,573,557,547,553,522,547,528,511,512,520,514,501,492,504,551,521,510,503,524,548,558,542,533,540,478,523,479,456,464,573,527,520,527,548,551,565,550,536,537,530,546,517,488,511,111,473,370,230,137,694,104,102,112,358,725,857,889,802,740,665,710,689,669,659,615,647,621,598,609,568,602,576,556,553,529,560,540,523,522,490,524,501,488,488,447,484,460,438,441,398,429,402,385,391,403,391,370,364,378,494,419,420,425,460,686,622,629,630,651,676,694,678,660,666,625,669,641,619,619,583,616,595,581,585,553,580,553,533,544,526,547,528,506,511,527,525,510,499,508,514,527,512,495,501,518,512,498,490,503,518,519,501,490,497,520,517,497,494,504,522,515,499,489,499,510,530,502,485,491,519,514,502,489,503,527,522,503,494,506,524,526,502,494,502,500,547,524,500,495,461,417,396,392,419,487,492,471,453,467,428,479,447,434,456,103,330,198,129,107,777,101,100,181,468,690,879,821,736,696,637,677,653,628,624,569,624,586,565,562,530,564,535,514,515,467,521,497,473,468,415,460,434,415,412,353,407,380,358,350,315,304,287,274,284,394,328,323,328,355,533,422,436,453,492,628,559,571,581,602,626,635,620,610,616,580,622,598,574,571,521,568,539,518,515,471,515,485,467,464,431,458,428,413,416,415,431,411,395,396,420,419,403,391,399,470,433,424,423,442,494,475,462,458,473,509,499,494,488,494,533,518,512,509,515,530,530,511,502,513,533,533,521,513,517,525,531,518,513,516,536,519,500,497,515,484,544,525,504,490,468,474,455,442,453,546,479,487,500,524,588,559,558,560,569,601,590,577,573,583,599,612,598,592,600,407,574,564,553,491,102,270,150,114,105,906,181,461,749,873,711,846,765,713,698,670,715,695,677,668,615,657,632,610,608,555,607,588,565,557,518,538,516,507,507,470,510,489,473,467,411,461,438,413,412,364,406,381,358,354,394,364,358,353,364,497,412,414,423,454,639,530,549,573,601,736,666,677,689,712,733,745,735,722,725,697,733,708,686,686,664,693,676,653,654,638,659,640,628,625,586,631,608,590,584,552,576,554,536,542,538,549,530,517,521,538,533,520,512,517,601,565,570,572,584,583,604,590,571,569,599,580,568,564,577,562,603,586,571,565,530,543,518,503,513,606,527,521,536,575,592,611,601,593,592,539,582,562,542,538,522,533,515,503,514,375,499,466,467,447,103,272,152,116,105,889,102,270,566,814,691,862,766,703,687,580,680,648,619,595,481,555,521,493,484,435,470,449,431,429,400,431,411,393,392,366,391,369,354,357,310,357,336,319,311,248,296,266,243,242,290,250,242,239,259,464,319,335,360,410,603,647,626,606,600,571,553,547,545,557,474,489,467,455,461,480,478,469,453,467,511,498,499,494,512,440,506,475,447,436,424,437,423,407,403,490,450,459,457,465,515,508,508,503,506,475,508,488,468,466,381,467,447,418,384,118,397,348,252,160,299,107,102,101,101,584,553,753,750,663,497,531,497,483,485,470,490,472,457,458,435,469,448,431,426,404,431,414,398,398,455,401,399,411,431,429,461,444,426,424,364,419,396,373,364,329,356,334,313,314,377,338,332,328,347,510,399,414,431,467,609,541,560,568,586,617,621,619,603,607,577,611,592,573,568,545,574,559,540,538,511,544,524,508,504,487,509,493,477,477,475,491,475,461,465,481,488,478,466,466,479,486,473,463,467,480,483,476,461,466,506,484,474,465,480,500,519,512,499,497,437,490,461,435,429,475,445,429,420,437,521,496,490,484,499,516,529,518,508,507,500,520,512,498,495,444,497,463,429,449,107,373,281,161,117,777,102,102,215,497,627,872,798,699,642,587,621,602,590,586,551,581,561,546,539,526,555,532,513,514,500,520,502,489,489,464,500,484,462,461,413,454,438,420,412,364,402,386,366,360,377,361,349,344,357,468,394,396,405,427,607,500,524,542,563,672,635,647,638,652,627,652,643,625,621,593,627,615,599,592,557,595,582,563,556,520,552,542,522,515,487,520,509,495,488,494,490,482,474,476,483,500,491,475,473,506,495,486,477,487,468,513,500,482,469,438,463,447,432,430,478,440,432,434,453,516,490,489,488,497,513,523,517,505,505,497,520,514,500,494,442,479,451,459,468,109,405,307,181,122,825,103,248,472,705,574,767,666,594,571,550,579,569,551,547,506,549,529,508,498,495,503,491,484,490,478,498,491,473,474,447,478,468,449,444,383,444,419,393,383,344,383,366,343,336,364,346,338,328,339,460,385,396,403,422,593,497,522,539,565,625,612,615,608,609,552,604,590,563,552,488,508,496,476,474,483,499,488,467,469,487,491,486,473,475,498,500,494,486,485,512,506,500,490,490,497,528,519,503,494,453,493,470,443,442,471,459,449,433,441,526,497,497,491,503,519,539,528,513,513,507,525,517,499,498,491,506,477,437,459,113,458,385,245,142,527,105,102,117,289,462,680,639,542,477,463,462,464,460,459,473,463,452,436,444,514,500,500,492,498,497,521,512,493,491,464,498,483,467,458,409,461,438,414,408,358,402,382,358,349,378,366,360,349,355,450,399,405,404,416,567,484,499,507,531,613,595,598,592,595,601,627,618,599,595,574,609,602,579,568,545,579,568,543,536,527,551,540,521,518,512,536,521,504,505,505,522,514,494,491,512,543,536,509,506,459,510,485,457,446,493,464,449,431,450,541,513,512,507,519,528,550,541,522,516,517,539,529,507,503,506,510,475,467,507,110,434,323,177,122,801,103,102,275,548,595,860,764,653,598,570,605,595,575,569,532,571,558,536,522,495,539,521,499,489,461,497,482,456,450,366,422,407,377,365,341,367,352,334,326,388,359,358,350,358,467,411,417,417,433,586,503,523,533,551,634,615,622,614,616,621,651,639,622,613,591,626,615,592,584,553,593,577,553,543,531,557,547,527,524,518,539,531,516,509,527,536,534,515,510,530,543,535,517,516,565,543,538,531,542,527,577,562,537,528,479,516,496,469,466,518,485,470,464,487,550,536,539,533,537,547,564,562,547,539,530,556,550,534,523,465,522,525,548,531,878,101,278,544,797,598,646,641,608,595,560,601,585,569,554,533,568,549,531,530,491,532,522,499,486,444,502,488,463,441,394,444,433,410,395,384,402,397,378,375,424,402,402,387,395,489,447,457,453,459,581,527,549,553,561,605,605,608,600,594,586,622,613,594,583,568,592,591,574,561,531,572,562,538,524,512,549,536,518,501,512,522,520,509,506,511,531,522,509,496,498,533,521,498,487,515,512,523,523,513,439,518,503,470,450,417,442,433,423,411,497,448,478,491,492,524,527,535,525,515,505,535,531,511,505,153,542,529,423,281,720,550,808,869,792,622,683,661,642,622,590,629,622,608,593,565,590,572,548,546,455,473,463,456,439,453,465,465,459,418,390,457,427,414,402,352,388,372,352,347,386,390,405,410,409,485,402,456,485,469,527,527,546,550,533,549,557,565,556,548,515,550,553,538,525,483,527,523,504,488,436,486,491,454,432,412,450,446,436,414,401,413,414,425,410,430,409,420,421,421,454,447,447,442,441,467,479,483,466,456,390,482,482,455,417,387,387,400,404,382,459,419,451,464,456,491,487,497,494,491,476,491,482,472,464,459,491,496,481,454,119,480,438,298,167,276,108,104,102,101,731,654,847,895,814,620,685,659,631,617,581,631,630,614,589,536,589,584,561,539,476,545,537,517,489,436,477,473,453,433,399,444,440,419,401,374,402,395,379,366,357,383,375,353,345,408,379,394,396,393,495,432,450,459,470,590,532,560,574,578,606,609,622,617,609,591,617,616,605,595,557,595,590,574,560,553,563,561,554,545,556,561,559,549,546,548,566,558,544,537,548,561,560,551,544,575,563,577,578,570,523,585,581,552,533,553,519,546,556,552,585,576,594,583,577,571,594,592,577,563,542,584,587,564,532,259,595,583,499,391,317,152,116,105,107,711,601,825,876,789,628,668,651,634,632,600,637,631,614,602,559,602,594,574,563,539,571,571,556,543,503,542,539,525,512,453,506,495,475,461,410,459,453,430,407,413,420,427,418,404,465,441,451,447,457,592,503,529,534,566,651,620,637,641,638,642,668,667,648,635,606,654,647,627,607,564,610,603,580,571,534,561,557,545,532,498,542,534,519,495,488,511,506,496,477,503,505,505,494,487,499,523,524,514,501,441,493,472,448,430,493,460,467,456,461,546,521,522,521,532,550,565,566,553,542,534,561,561,545,533,555,546,536,546,577,106,479,346,180,123,774,103,100,222,485,685,878,847,756,698,642,689,692,675,657,608,642,635,615,601,570,601,595,578,567,524,569,563,542,526,480,528,524,504,486,437,488,476,453,435,415,439,433,417,404,469,433,444,442,446,534,492,507,506,510,637,561,580,593,611,674,656,665,665,665,668,688,690,679,669,649,669,669,655,646,600,651,639,618,602,583,611,610,595,583,571,592,590,577,561,564,585,594,583,569,580,568,574,568,565,587,605,610,601,588,545,589,579,554,539,592,566,571,560,562,690,640,661,663,670,679,711,717,702,684,654,691,683,665,652,681,661,647,648,684,118,609,494,305,161,794,106,103,238,518,697,749,742,722,701,648,697,696,679,662,584,644,633,610,590,466,488,487,471,457,501,488,500,496,492,576,527,546,551,556,698,692,705,700,693,666,708,707,695,672,596,640,638,621,608,542,580,578,557,543,506,563,556,537,516,487,506,504,493,483,563,513,544,552,551,567,592,605,590,571,519,571,569,551,527,488,524,526,512,487,162,530,520,434,306,192,118,106,102,102,793,495,787,883,860,692,748,726,708,690,648,695,688,674,656,599,650,645,628,609,536,596,585,569,548,510,532,528,515,504,535,524,532,529,526,494,554,553,529,508,473,497,494,480,468,499,488,500,498,494,581,521,537,549,562,640,613,619,624,629,659,659,670,668,658,638,669,675,663,646,604,638,632,618,602,633,624,640,637,631,604,638,640,630,611,586,609,609,599,586,568,595,591,579,568,541,571,562,548,536,538,552,557,546,532,518,547,545,533,519,511,527,527,519,509,507,513,513,501,496,481,524,532,512,489,416,474,463,439,421,446,416,409,405,417,488,468,479,479,481,477,498,501,488,474,479,487,493,488,479,353,485,469,467,437,102,257,150,116,105,868,101,155,426,732,649,870,798,718,669,577,644,635,613,589,516,577,575,556,530,480,514,508,494,481,456,476,477,467,454,413,457,454,439,422,361,415,405,384,366,339,365,365,352,337,382,356,364,369,369,477,411,441,455,462,602,511,545,565,581,645,628,647,650,643,628,657,663,652,634,586,634,639,620,593,548,585,586,574,554,518,550,551,536,520,502,524,527,517,500,492,511,519,512,497,496,505,514,503,491,498,507,515,511,500,497,510,520,515,497,478,504,506,497,481,479,492,503,497,482,463,489,491,478,464,467,476,486,480,470,488,474,486,493,483,423,493,493,474,442,411,425,434,432,418,454,418,438,441,443,484,474,496,500,489,476,492,496,489,480,401,482,487,472,439,211,423,437,383,313,154,132,111,104,102,533,607,575,555,539,492,540,535,515,497,439,491,492,477,455,395,434,441,426,403,361,399,405,393,372,322,362,366,352,331,266,325,323,299,279,240,267,265,253,236,304,257,278,289,293,401,331,363,379,383,490,440,472,489,490,520,511,537,538,520,505,530,537,528,510,481,511,522,515,494,451,482,490,478,458,438,457,466,459,443,441,445,453,454,445,447,451,462,456,447,458,460,472,469,461,473,468,482,481,473,465,487,491,487,472,468,473,492,488,472,469,476,486,483,472,454,474,480,475,464,451,464,476,472,457,470,456,469,473,468,454,488,498,493,469,400,447,442,423,403,414,410,419,411,398,469,440,457,465,465,461,486,497,490,468,462,472,485,483,472,417,464,461,430,433,107,358,297,176,121,683,103,101,183,414,588,833,805,712,630,553,591,603,595,566,514,553,562,552,531,480,518,529,522,494,450,479,491,488,464,418,450,456,451,430,373,415,412,402,379,433,359,395,414,415,614,583,611,624,616,604,613,623,631,617,580,606,608,603,587,536,575,583,573,551,517,536,552,546,528,489,516,522,516,500,480,499,515,503,484,482,491,509,510,490,472,485,503,502,483,473,486,497,497,488,477,486,508,495,487,466,486,504,497,474,465,472,486,491,479,472,481,496,491,479,463,484,489,488,474,476,482,492,490,480,490,493,523,518,506,414,480,476,461,424,473,419,442,447,456,513,508,539,546,533,504,515,536,537,518,481,509,528,524,497,406,477,473,466,462,104,309,199,128,109,733,102,101,145,413,654,865,842,770,696,599,648,659,656,630,540,589,589,577,557,494,541,552,541,515,445,484,491,488,467,416,449,460,456,428,348,411,410,391,370,319,347,350,346,332,339,319,343,353,338,430,367,397,421,428,550,453,492,518,537,635,582,616,635,631,636,645,657,662,645,600,634,647,647,622,566,599,607,597,575,530,565,567,568,549,508,536,554,549,527,516,512,539,555,538,522,518,534,542,532,512,529,538,539,525,468,524,536,544,515,495,469,482,488,518,527,515,566,562,547,463,451,461,490,457,433,474,465,494,449,319,309,341,346,337,302,314,313,302,311,353,344,343,351,355,405,102,101,101,102,628,766,877,813,704,584,607,609,616,601,525,584,588,583,554,487,517,534,535,504,439,482,487,473,453,402,442,453,448,427,360,394,406,399,378,314,353,360,353,337,337,311,327,339,341,367,351,371,387,378,458,385,419,445,456,554,484,521,551,558,582,564,590,607,601,570,582,603,614,594,543,569,581,595,575,553,542,563,571,563,587,564,592,608,599,589,594,604,613,602,566,585,590,601,589,539,559,577,576,561,543,545,562,568,564,527,536,547,553,543,510,524,534,542,530,501,511,529,538,525,523,499,518,537,530,503,531,547,552,534,435,480,463,456,450,466,424,436,458,467,520,476,502,527,532,518,520,535,542,531,518,526,545,555,543,315,485,490,505,437,102,188,124,108,103,894,102,345,687,855,676,828,766,729,705,608,663,665,663,638,555,593,596,594,583,506,546,550,546,529,447,499,505,506,476,304,331,333,337,326,371,309,334,363,369,468,384,412,440,455,581,499,539,580,589,564,572,576,586,578,564,559,573,588,577,552,565,577,583,570,538,551,566,575,563,521,532,537,547,539,515,518,530,536,531,506,510,519,529,518,501,504,516,521,514,510,499,516,530,526,525,512,533,547,542,550,531,554,570,562,573,559,580,595,593,510,565,565,561,538,501,509,524,529,509,580,528,564,584,583,589,590,604,612,607,118,494,411,304,166,679,106,103,117,377,794,854,900,912,856,727,768,769,768,755,656,712,708,699,678,610,651,657,657,638,572,600,607,602,592,552,565,576,576,566,492,548,548,547,524,425,476,473,464,441,415,416,421,423,424,489,421,445,470,483,634,512,553,596,623,725,658,692,721,729,731,732,747,751,741,685,716,714,713,702,638,659,662,671,660,583,600,602,608,601,614,588,608,616,617,642,624,642,654,660,645,631,633,637,645,620,648,662,663,652,546,595,574,567,558,586,539,548,564,574,633,586,604,629,641,598,629,632,634,623,580,592,595,596,589,413,560,557,576,531,103,276,154,117,106,879,103,150,460,775,748,905,868,823,779,701,740,737,736,723,641,692,693,694,672,604,627,630,636,623,566,598,604,603,592,518,557,559,554,535,454,510,509,508,484,411,445,443,440,433,423,405,419,434,431,514,430,456,487,504,632,539,576,608,628,679,649,669,688,689,651,685,692,691,672,611,641,637,634,623,557,598,592,595,578,539,550,554,555,551,553,537,552,562,563,555,557,568,574,570,534,549,551,558,549,524,530,533,541,537,519,525,532,543,534,542,516,525,536,548,473,536,540,539,515,453,451,452,463,465,507,448,471,503,515,535,509,535,551,550,537,530,539,550,548,542,535,546,564,565,237,547,554,500,391,109,139,112,104,102,867,364,699,861,904,725,805,772,764,747,688,716,721,725,709,640,676,672,671,658,617,634,642,647,637,602,610,613,623,616,569,597,601,603,588,534,545,527,526,532,550,537,553,565,558,613,562,585,605,614,708,628,651,678,696,819,731,768,804,818,849,831,852,862,859,819,840,839,839,834,806,813,817,823,819,769,804,798,796,783,731,757,758,760,748,720,720,725,736,731,696,713,720,721,712,707,701,711,723,719,712,706,714,727,720,740,710,714,732,745,685,729,721,722,708,678,671,669,678,685,800,684,711,754,788,837,808,823,839,842,839,835,839,846,846,776,834,836,832,810,537,754,773,761,661,109,363,206,131,111,915,364,709,862,903,845,918,905,888,870,748,824,814,800,778,657,716,703,698,676,677,655,663,674,676,675,687,701,711,701,574,655,633,614,599,487,550,532,524,508,439,467,456,451,446,497,444,459,481,494,617,501,524,561,590,742,646,684,716,736,766,759,777,788,782,703,760,756,755,731,661,692,690,690,677,596,647,636,630,614,557,587,589,586,574,510,542,541,534,521,513,508,518,523,522,515,508,516,524,524,561,520,533,551,558,552,573,581,587,573,517,533,527,533,525,555,521,539,545,546,632,570,592,602,610,637,664,683,684,659,599,630,631,633,621,555,580,569,558,573,112,474,376,220,141,740,106,101,185,457,634,870,842,762,684,574,612,611,619,601,457,556,548,519,481,453,453,465,476,470,428,432,437,452,441,432,437,455,464,452,387,426,428,424,403,349,379,384,390,367,369,352,370,391,387,451,375,401,430,441,593,481,531,573,589,675,609,647,684,689,668,678,701,720,708,619,645,645,653,643,621,610,627,646,641,633,626,647,669,659,665,613,627,645,650,783,708,768,809,810,696,765,768,766,737,646,673,673,679,669,583,629,635,636,614,556,565,575,591,578,602,546,565,591,606,627,599,623,653,652,568,609,610,615,597,535,555,566,581,569,456,496,500,546,532,108,384,285,173,122,779,103,241,499,732,500,676,594,556,527,503,489,507,530,522,485,495,511,521,510,447,473,482,488,479,415,431,437,447,437,373,395,400,400,390,338,361,369,374,362,322,326,328,341,338,350,322,349,376,374,386,325,342,372,385,486,496,501,511,504,504,469,477,495,513,549,524,543,559,560,505,536,535,533,523,484,499,513,521,511,482,478,491,503,495,471,465,471,489,488,462,464,472,488,479,458,454,461,472,469,456,461,482,491,485,441,445,448,452,446,450,441,455,471,461,506,459,483,503,506,508,509,527,537,527,487,495,502,511,507,430,476,478,462,425,126,396,348,297,193,477,107,103,108,279,591,687,768,723,650,542,568,577,585,570,510,526,530,536,528,459,485,488,493,486,410,446,446,451,438,314,382,370,369,350,223,284,268,262,244,243,203,205,221,231,431,261,309,366,407,589,460,507,550,576,619,600,624,649,639,634,618,637,655,651,607,625,629,639,630,562,593,594,595,584,498,541,532,535,521,491,481,485,498,500,405,411,415,423,419,322,345,339,340,336,450,323,366,417,447,492,459,483,510,510,425,471,470,466,448,382,416,423,431,408,448,386,416,438,445,473,451,468,487,488,454,457,466,481,479,392,441,446,442,402,122,372,328,278,175,404,108,103,100,175,614,653,809,791,698,543,566,557,568,566,503,527,527,535,532,438,485,476,480,470,390,412,408,417,412,371,377,382,393,394,336,349,345,355,355,328,289,297,319,332,395,325,346,377,393,506,397,431,470,496,583,513,536,571,589,582,575,577,590,594,549,567,574,580,578,524,529,531,545,541,465,504,500,507,496,434,439,437,445,447,441,420,420,441,448,454,432,439,453,454,461,448,459,470,472,476,450,469,489,493,485,466,473,491,503,486,472,477,501,498,491,475,481,493,503,489,473,482,499,504,517,478,492,511,524,483,511,514,517,510,465,456,449,457,469,492,439,434,459,480,536,488,502,525,539,519,527,525,528,531,496,507,515,525,522,363,452,429,457,443,103,267,162,117,104,854,102,254,524,784,599,772,687,639,616,569,582,584,592,588,536,550,550,557,555,490,516,513,518,514,460,470,472,486,484,419,439,432,439,437,375,398,393,398,398,353,349,341,349,358,400,342,355,381,397,468,398,408,430,458,582,474,497,543,574,613,574,589,608,622,602,598,598,615,616,566,579,577,587,583,533,548,545,558,555,512,513,511,519,525,503,494,490,503,515,496,483,485,500,512,492,484,482,497,503,490,476,479,494,501,485,473,480,495,500,492,472,478,491,504,487,478,478,491,501,498,473,476,495,507,499,481,483,501,513,486,481,482,494,499,470,474,475,488,488,487,448,451,472,486,472,480,486,495,498,420,436,417,420,429,438,411,400,408,431,497,435,451,478,501,504,479,474,488,505,492,485,487,503,510,605,818,725,660,630,559,584,577,584,580,516,527,521,531,537,470,488,477,483,486,445,446,437,448,456,419,423,412,420,430,371,397,389,391,389,343,350,347,353,356,369,332,340,355,370,451,369,382,414,441,572,457,479,520,558,623,571,584,608,628,603,607,605,616,622,582,581,581,595,595,554,557,548,555,562,536,534,532,539,548,528,519,516,524,535,514,508,503,513,524,515,497,503,515,524,522,498,501,516,530,528,500,500,518,536,515,514,510,518,521,521,497,492,511,527,512,503,497,509,522,516,500,504,518,530,515,496,497,510,524,510,497,490,503,519,535,495,497,523,540,467,506,494,496,493,433,433,419,434,449,499,419,431,473,499,524,491,498,519,532,513,508,501,512,526,451,492,487,497,488,146,442,413,343,253,742,568,811,889,844,610,651,614,617,625,532,546,527,533,539,457,461,450,464,472,371,338,331,343,364,517,424,432,459,496,603,607,595,605,614,538,548,530,537,549,513,515,504,511,522,517,498,482,497,523,506,497,493,508,515,519,488,485,504,525,520,503,495,509,526,528,500,495,512,531,519,511,498,512,528,520,496,490,506,522,515,500,487,499,519,502,492,485,498,511,538,491,490,519,542,471,516,499,501,498,438,438,423,433,453,516,429,447,482,512,539,500,501,525,549,532,521,506,516,536,468,511,492,494,483,129,459,405,311,200,317,110,104,100,101,737,604,835,895,835,624,656,619,624,636,562,591,570,577,582,511,532,510,519,527,473,482,463,467,479,425,449,430,437,441,382,396,380,386,398,344,351,331,341,353,346,313,298,313,340,416,338,342,375,409,535,413,428,464,509,628,538,544,578,618,644,616,606,625,648,627,617,605,619,636,592,594,577,584,604,547,557,533,536,553,530,516,498,508,532,519,496,484,502,525,517,491,478,497,524,534,492,486,509,535,551,509,500,519,548,554,527,517,533,552,552,525,507,533,553,545,528,513,526,548,574,522,511,535,567,539,560,548,551,560,469,491,456,458,475,514,442,423,451,497,557,502,501,527,556,549,538,521,531,549,530,532,514,527,545,319,483,472,485,435,103,173,121,107,103,901,143,411,737,870,684,819,725,693,693,630,658,641,637,639,580,602,580,581,586,522,556,535,530,532,473,500,479,472,480,428,456,434,433,435,376,407,395,394,392,351,353,336,335,346,405,351,351,363,388,503,417,424,441,473,631,523,534,565,603,640,645,629,628,640,612,625,613,616,622,579,587,572,571,579,536,565,545,538,537,535,525,518,517,530,525,529,518,516,524,536,519,506,513,526,535,529,514,516,529,536,527,518,522,531,537,528,519,520,534,571,533,533,546,565,508,559,541,534,527,469,485,469,468,473,515,463,473,495,508,555,522,524,536,550,535,543,526,526,536,480,524,511,502,483,135,489,438,344,222,254,110,104,102,101,768,573,818,892,844,651,705,669,656,654,596,637,616,604,599,534,580,561,546,541,501,522,511,506,505,459,488,470,461,458,411,446,426,417,416,355,395,374,359,356,354,341,330,330,340,419,356,356,374,397,541,435,440,466,503,642,559,572,592,619,636,639,628,622,631,613,625,610,607,612,538,567,548,539,539,519,506,493,499,511,517,500,490,494,506,529,513,507,507,518,544,537,533,535,540,477,530,507,487,480,484,465,458,453,461,542,503,504,506,522,551,544,534,535,547,533,542,527,522,530,502,521,491,470,499,108,421,317,186,124,783,102,102,215,504,638,882,820,724,665,595,621,613,608,603,557,584,560,561,564,520,546,524,519,520,494,509,493,487,490,446,479,464,450,447,401,434,417,402,402,361,387,362,354,355,393,359,350,356,377,496,397,407,424,457,628,517,534,566,600,685,645,647,651,671,653,680,667,665,663,631,638,631,624,628,605,622,605,595,600,562,590,569,557,559,535,559,546,538,537,523,528,518,515,522,521,516,504,509,516,525,515,504,504,515,538,525,509,509,524,539,548,536,536,541,475,523,491,472,471,494,459,453,447,463,541,511,511,514,523,547,549,541,534,542,537,545,524,521,529,500,523,492,479,511,107,414,304,165,120,789,102,101,228,513,669,877,815,731,682,619,655,637,627,621,579,606,587,578,578,532,566,542,529,531,499,522,505,497,497,459,488,468,455,450,402,442,420,408,406,369,393,370,358,361,395,362,349,351,371,483,408,409,424,455,613,504,525,553,586,660,624,624,630,647,641,657,640,631,634,615,633,613,604,608,583,604,581,568,574,547,568,549,536,538,536,541,527,519,526,525,526,512,507,515,522,520,508,505,515,520,516,506,506,512,530,520,507,504,513,538,541,537,533,533,477,531,508,484,476,482,473,463,454,461,550,495,500,501,523,549,554,541,530,537,531,545,526,516,523,526,523,504,473,486,114,493,396,265,147,622,105,104,101,306,683,834,886,804,723,629,663,644,633,630,582,614,593,579,581,550,572,553,540,543,505,544,519,501,499,465,499,477,461,461,420,451,429,420,418,376,414,389,371,369,397,371,361,359,374,470,411,408,414,438,605,491,506,532,567,675,622,630,635,651,649,676,663,645,651,622,638,623,620,615,587,616,598,584,583,557,585,565,550,555,543,553,538,531,533,527,534,521,513,515,528,529,517,511,515,533,528,512,509,519,532,542,529,517,525,539,530,521,517,527,561,540,530,533,546,500,556,537,514,504,467,492,472,461,459,531,473,476,491,507,555,554,546,539,548,547,555,539,530,534,496,548,529,508,496,149,512,470,376,263,223,117,105,102,102,808,533,804,888,874,667,741,693,665,662,612,657,636,616,611,559,600,574,555,555,523,552,530,516,517,477,512,491,470,470,420,473,453,428,422,378,409,385,367,368,372,369,350,340,350,433,382,380,381,402,563,453,463,481,517,658,593,607,612,636,637,667,656,646,642,589,627,599,580,573,594,589,577,569,580,583,592,577,565,571,552,576,556,547,548,543,547,534,529,531,536,546,533,521,527,548,542,535,527,537,551,549,539,533,545,547,544,531,521,533,549,548,537,528,533,547,554,539,525,531,572,547,539,533,550,532,579,567,542,533,485,513,484,464,468,517,476,461,461,486,558,528,524,529,544,548,556,542,530,540,544,551,533,524,532,356,518,485,476,438,655,701,677,654,651,598,647,623,599,594,541,588,567,540,534,508,542,520,504,504,469,506,487,472,467,414,464,439,419,415,383,404,382,362,363,425,395,385,374,392,524,442,450,456,485,650,555,575,588,619,690,666,668,669,676,655,693,674,655,648,632,656,639,622,622,614,634,621,601,602,580,611,598,575,570,565,585,570,553,549,560,572,559,539,548,559,561,550,539,543,565,567,558,543,543,554,562,551,540,541,545,554,539,526,533,530,543,533,521,519,531,541,529,515,517,525,537,519,506,510,550,533,527,514,527,506,561,551,528,514,479,497,482,462,467,513,483,462,460,487,555,526,529,528,543,545,553,545,531,534,534,547,536,524,524,427,524,487,484,480,105,341,197,128,108,866,102,155,406,723,683,881,793,720,687,644,684,665,640,635,582,639,618,591,583,544,582,568,546,541,505,544,520,500,501,461,502,482,464,457,408,459,435,413,407,367,405,384,360,353,400,373,362,358,372,488,423,427,429,449,625,524,543,566,593,666,641,645,646,653,625,665,653,635,624,596,628,612,590,587,559,595,577,561,551,538,561,549,533,528,528,545,530,512,514,533,536,528,515,513,523,530,521,503,508,533,537,524,520,520,545,539,522,515,526,545,553,545,531,534,540,550,543,526,527,528,545,541,524,519,538,542,528,515,525,529,540,533,517,518,519,541,528,512,507,531,530,524,512,514,546,547,543,545,541,484,545,514,482,476,464,485,472,446,440,545,491,501,506,515,542,560,554,538,536,540,549,545,534,532,490,544,530,502,479,134,506,447,346,225,275,110,104,103,100,770,586,825,887,834,658,727,690,667,663,589,653,633,609,589,521,580,558,536,526,471,524,509,480,466,418,471,459,426,416,378,420,411,388,378,330,384,362,342,327,330,331,323,314,313,396,350,356,353,367,518,428,444,458,487,634,558,583,597,609,657,655,653,646,647,624,657,642,615,611,582,626,611,582,572,553,593,579,567,550,542,561,557,545,539,530,543,530,517,518,530,537,530,518,518,536,542,537,523,518,536,541,535,526,524,531,543,533,520,523,535,539,535,525,520,532,545,543,529,523,529,547,540,522,517,538,545,542,530,529,534,547,538,523,523,541,547,544,527,528,535,551,544,525,525,536,550,541,526,525,533,546,535,524,526,568,543,541,531,544,524,583,571,548,534,476,514,494,471,467,523,481,477,482,497,565,542,545,545,552,551,571,559,544,541,548,561,555,542,540,441,545,515,516,502,104,358,205,130,110,865,104,145,404,725,708,899,835,752,713,663,716,704,680,662,603,661,643,618,601,558,606,592,567,554,516,565,549,525,514,479,524,508,482,474,423,481,459,432,421,377,422,405,378,366,406,384,376,367,376,486,434,443,438,451,618,524,544,561,585,688,650,666,665,671,682,703,702,685,674,654,684,675,657,647,613,657,648,625,612,586,619,602,586,581,556,596,590,569,555,561,571,567,554,548,553,571,563,546,543,559,565,559,548,548,563,570,568,559,553,564,569,561,551,549,562,576,562,545,548,563,571,565,554,553,556,571,569,555,552,561,561,560,549,550,551,574,566,541,538,559,565,561,550,549,553,573,571,557,546,573,562,557,548,551,572,586,586,575,566,497,572,545,507,490,507,507,503,484,483,564,534,541,535,545,566,583,579,561,555,552,572,562,551,548,538,561,554,518,507,115,512,413,277,154,566,107,102,101,247,713,819,891,842,756,658,705,694,668,654,520,564,550,530,518,479,521,506,485,474,428,485,468,444,432,375,426,410,386,371,367,375,368,350,350,437,391,403,402,415,679,619,640,647,660,645,680,672,662,645,610,654,642,620,610,584,621,611,594,583,556,593,586,562,555,550,565,560,548,543,542,560,555,539,533,549,553,555,540,538,553,567,572,557,544,561,572,567,556,550,557,573,572,552,547,556,567,569,553,547,553,568,565,548,540,546,567,563,541,533,540,561,556,539,532,543,553,545,536,533,564,556,555,553,555,518,581,572,546,528,466,505,488,465,458,511,472,473,483,497,552,534,546,548,547,549,570,562,548,542,519,552,540,524,518,320,511,516,493,419,102,190,126,108,103,888,136,394,700,859,681,830,760,711,683,622,678,663,641,626,567,619,608,588,569,448,491,482,464,453,372,445,426,398,380,327,372,358,333,320,367,338,343,339,342,481,395,410,423,446,621,520,549,565,586,671,652,664,660,661,644,682,674,655,640,612,652,639,621,609,575,619,612,592,577,542,579,577,553,539,530,550,548,531,522,528,539,533,523,518,518,539,535,520,511,523,531,527,516,513,530,538,535,523,516,528,544,537,522,514,526,547,543,526,516,530,542,542,530,522,520,544,535,514,509,525,539,535,517,509,542,549,553,544,531,461,553,534,496,464,445,472,463,444,432,512,475,487,476,479,529,544,550,527,515,526,543,543,523,513,480,545,536,504,470,148,518,472,365,256,343,115,103,102,106,745,656,849,887,807,641,711,681,647,630,598,657,640,601,586,551,611,591,554,534,513,573,561,518,498,472,532,521,482,461,425,490,475,438,418,362,437,414,373,355,337,381,367,331,317,402,368,371,357,362,548,454,471,473,496,666,604,627,625,632,680,702,704,681,665,634,693,679,642,619,613,654,640,614,597,578,627,613,582,568,552,595,587,561,539,537,568,558,529,520,527,555,547,522,511,532,550,543,520,509,530,556,549,521,511,536,558,555,529,518,536,560,559,536,522,538,556,555,535,523,536,560,557,536,523,559,561,567,558,549,493,573,563,527,494,463,504,496,470,451,523,494,511,505,500,539,555,556,543,529,534,558,555,540,530,472,550,536,509,470,131,498,443,336,206,351,109,104,102,109,749,667,849,891,815,589,657,645,614,591,550,601,595,567,546,514,565,556,530,509,471,526,516,483,463,428,485,474,449,428,360,434,420,390,360,351,370,364,343,332,405,373,384,374,374,562,454,483,495,514,671,615,640,645,653,676,701,710,699,679,643,689,680,657,640,609,651,647,627,605,574,615,611,590,572,553,584,578,559,546,527,572,568,544,527,527,540,547,531,517,524,548,550,533,513,533,537,545,531,524,527,541,543,530,519,528,551,557,537,523,565,547,554,546,547,518,584,580,556,527,472,513,503,481,468,517,481,489,488,494,545,537,553,548,539,537,556,560,541,525,508,552,554,538,521,281,495,505,472,383,101,162,119,105,103,897,145,420,733,868,672,840,770,714,678,621,679,672,651,626,560,622,613,589,566,519,563,565,547,524,473,524,519,497,475,428,480,475,456,432,367,433,422,398,370,324,370,359,340,323,365,343,352,350,349,491,396,419,434,449,630,542,578,591,607,671,667,689,682,669,642,677,679,663,644,604,648,643,625,605,567,613,609,591,570,547,578,576,560,545,519,555,549,528,512,525,532,539,527,516,528,542,545,538,527,533,539,546,536,528,538,549,559,551,538,534,545,556,545,530,564,548,559,555,551,536,582,586,566,547,477,526,512,491,477,517,487,485,479,492,563,536,553,559,556,545,572,575,562,544,528,555,559,550,533,365,514,500,501,447,101,269,151,117,105,897,102,324,636,840,655,865,788,715,669,621,662,662,648,628,557,614,606,592,567,518,566,569,554,526,487,520,522,511,494,433,493,489,465,441,367,441,437,413,382,337,372,369,352,337,367,349,358,356,352,480,397,426,439,451,618,527,568,589,601,672,644,670,682,672,647,682,685,676,652,625,653,654,644,631,585,625,624,614,598,557,589,594,580,561,530,569,571,553,535,526,539,545,538,525,536,536,549,539,527,524,536,538,536,519,521,541,550,539,522,527,530,541,540,527,546,540,558,563,551,472,555,553,530,497,459,474,487,479,461,519,488,521,524,512,539,542,562,559,543,524,540,546,542,530,152,496,465,381,273,372,116,105,102,128,601,647,638,625,604,561,603,600,587,567,530,563,564,548,532,490,533,527,514,497,450,495,497,481,460,401,451,451,436,413,348,405,400,383,360,345,348,353,346,331,406,364,385,390,388,545,440,480,504,515,642,582,619,633,630,634,659,668,659,639,606,641,647,636,613,576,610,616,607,585,549,583,587,575,551,516,552,556,549,526,508,520,532,524,511,505,520,530,524,511,508,519,535,530,514,512,526,536,527,513,523,526,539,534,520,550,538,551,548,547,518,560,568,556,533,473,509,506,489,475,514,479,485,495,504,554,529,551,559,553,542,562,570,560,545,513,555,564,556,537,357,487,483,492,435,102,271,167,119,106,877,123,368,646,842,636,804,735,684,648,593,639,641,628,604,547,597,601,587,563,513,546,553,542,523,480,520,523,511,488,432,481,484,473,447,382,436,440,428,400,341,381,384,373,351,379,351,364,368,365,498,404,440,462,476,632,536,578,604,619,666,653,670,673,669,637,673,678,667,652,599,637,643,632,613,564,606,617,601,575,543,570,581,571,551,533,550,564,558,537,526,541,557,551,528,532,536,556,551,538,534,543,558,554,538,542,548,567,567,551,552,549,566,564,552,547,571,588,580,556,500,546,543,527,509,531,506,512,511,513,577,549,567,570,570,562,588,594,586,568,561,574,591,588,572,503,559,544,515,512,124,459,404,296,172,814,107,103,289,565,584,624,628,622,600,554,586,595,582,560,490,518,530,520,499,456,492,497,488,467,401,456,458,444,422,353,397,399,386,367,372,358,376,381,372,466,393,423,440,448,593,501,540,562,577,640,626,653,661,650,623,648,664,661,639,599,629,637,628,609,576,606,618,608,589,543,582,588,580,559,513,549,556,549,527,504,520,534,530,514,503,513,525,525,507,506,517,534,531,515,516,513,534,538,522,522,526,542,541,528,546,535,552,555,548,495,557,561,550,524,482,495,504,502,495,509,482,494,501,506,549,522,548,564,556,527,556,571,562,543,523,540,551,554,542,381,503,479,477,444,107,339,263,167,120,853,117,331,567,774,605,797,723,662,624,564,605,614,607,583,532,562,574,572,549,507,531,544,540,520,375,347,365,370,368,650,624,655,667,659,622,652,662,658,639,592,622,628,623,607,557,594,602,596,576,542,562,576,572,555,525,545,553,554,540,520,527,543,548,536,512,520,534,536,522,513,522,535,540,525,517,527,541,539,528,542,524,541,545,543,503,552,557,547,522,474,498,501,501,489,553,520,548,564,559,532,554,567,564,545,523,534,547,550,537,405,509,494,500,479,105,334,232,141,111,868,102,189,453,729,623,859,778,704,651,589,621,629,629,612,547,593,598,586,567,511,541,547,545,528,478,510,516,514,498,439,475,483,479,460,386,435,438,433,409,346,383,385,376,360,375,349,365,378,376,467,390,423,443,452,607,498,537,572,593,657,632,658,670,665,632,660,672,669,651,599,634,641,637,619,562,591,596,592,581,527,562,569,561,542,509,531,542,540,524,504,516,527,527,515,507,512,527,521,515,500,515,523,521,508,504,509,527,527,514,500,512,530,539,517,507,508,521,527,514,505,512,522,522,515,500,509,518,522,515,500,505,527,523,513,505,507,519,524,514,512,507,515,517,508,513,529,544,545,527,444,498,492,483,460,464,451,457,450,455,522,483,510,528,520,517,533,545,547,536,511,514,527,533,519,469,511,513,495,478,113,426,355,246,140,576,105,101,105,298,677,819,889,836,744,617,654,656,659,640,565,607,609,602,586,515,552,558,551,533,474,513,505,512,498,434,470,470,472,451,381,426,430,425,401,339,373,378,379,361,340,334,346,351,346,414,354,378,405,418,538,434,472,507,524,630,570,604,630,638,637,639,662,669,655,598,638,649,644,627,565,596,605,603,585,533,562,569,572,557,509,530,546,542,526,498,512,527,529,514,491,497,513,522,504,497,496,514,516,518,496,498,511,515,510,495,501,521,526,514,500,498,515,524,511,495,503,520,527,513,492,493,511,524,513,496,494,497,506,502,495,492,510,525,512,491,497,512,517,507,431,448,457,462,450,518,489,519,537,536,883,102,279,574,819,645,821,756,708,672,596,636,641,641,621,539,585,582,584,564,501,533,536,539,524,459,490,493,498,480,419,455,460,463,446,367,407,406,404,388,322,354,355,356,341,364,320,338,359,364,454,375,402,432,446,585,478,519,559,576,638,606,636,654,658,622,639,648,654,645,590,612,615,618,609,549,584,590,596,580,528,533,542,550,547,513,523,532,536,530,504,510,523,530,520,510,506,520,530,524,508,509,522,533,526,512,503,514,529,527,515,511,523,532,528,508,515,524,531,524,512,511,527,537,526,506,511,526,537,526,508,503,518,524,520,506,500,517,529,519,536,506,528,544,550,482,532,542,545,519,463,464,468,482,479,507,452,467,498,508,537,519,536,556,556,532,535,541,554,548,497,528,534,542,534,331,466,488,501,435,102,203,129,109,103,860,146,421,731,867,638,767,701,672,656,587,631,627,626,616,544,568,569,575,562,505,533,540,545,530,467,491,494,502,492,422,456,457,463,450,364,405,406,402,387,319,350,352,349,335,361,314,329,355,360,467,373,405,439,459,599,487,531,571,595,636,615,641,657,654,622,632,642,651,643,591,608,616,623,612,555,575,580,585,575,525,547,554,561,550,507,516,515,524,523,500,495,498,517,516,505,498,507,516,515,506,499,507,521,519,510,506,515,529,525,515,501,515,529,529,512,510,520,530,527,509,506,517,533,527,515,504,515,524,528,540,506,518,542,548,500,540,538,549,535,458,471,464,474,472,494,444,445,472,497,541,491,518,545,553,524,533,540,549,542,508,515,525,538,531,352,475,471,498,460,102,235,142,111,105,890,101,263,572,818,653,841,762,713,681,604,639,642,646,635,560,583,579,588,582,515,543,545,550,538,482,503,509,517,509,447,467,469,476,466,385,427,432,435,416,342,368,365,371,363,378,327,346,369,378,478,384,407,441,463,621,495,532,577,606,664,633,653,673,679,649,653,662,677,669,613,631,631,640,631,574,598,601,608,601,543,558,564,573,562,518,516,520,538,535,526,512,522,538,541,521,516,525,541,539,545,515,526,546,552,526,543,550,555,549,466,504,490,490,484,498,456,462,484,497,543,495,512,542,557,536,528,534,548,548,518,521,526,540,538,438,492,469,476,490,850,102,121,360,668,636,880,797,726,672,593,614,610,615,612,561,574,574,583,578,485,497,499,510,504,392,426,422,425,417,339,366,363,370,364,460,369,391,423,447,665,616,641,669,678,647,648,651,666,666,582,591,595,606,604,555,567,568,580,574,527,536,535,545,547,524,511,515,531,532,520,506,513,527,531,528,506,519,536,540,530,515,526,544,543,532,521,523,540,546,544,523,531,546,549,542,546,560,566,563,489,518,506,511,505,500,473,471,485,494,558,500,514,541,556,551,548,552,568,571,546,531,542,559,565,462,524,500,487,500,106,375,295,177,122,800,103,101,253,543,678,887,838,773,722,630,649,647,662,650,568,605,600,598,589,539,546,548,562,563,488,516,505,519,514,463,470,468,481,482,400,442,435,437,426,352,380,372,378,375,364,333,338,354,365,453,361,384,413,438,610,470,506,557,596,683,619,643,673,686,665,676,678,691,694,632,645,645,653,651,591,611,607,615,613,567,569,567,586,586,545,546,543,554,558,537,532,532,548,553,536,521,528,545,550,535,522,528,542,543,534,520,522,536,547,553,526,536,562,567,506,535,532,540,538,477,476,468,479,486,522,473,493,527,534,553,524,541,565,569,539,533,535,548,552,484,523,519,530,526,343,457,481,481,432,118,212,131,109,104,767,320,625,839,880,587,660,614,605,603,533,542,536,549,548,509,514,510,522,524,477,487,487,492,493,438,458,453,461,457,383,408,400,408,406,364,361,350,360,369,417,354,364,387,411,542,420,445,489,524,654,551,583,619,650,666,648,649,666,675,629,644,637,642,643,604,612,606,622,622,577,583,578,584,589,539,551,544,553,556,520,525,523,531,533,525,505,509,524,535,519,506,509,519,526,523,506,507,524,533,554,513,517,538,559,528,536,533,543,545,480,494,482,495,498,528,460,463,493,530,562,516,530,555,573,547,544,541,553,557,529,537,539,550,552,425,480,476,507,494,104,333,213,132,109,843,111,309,576,814,628,747,676,646,639,584,608,603,605,602,551,558,549,556,569,523,530,524,532,537,491,497,496,499,503,450,469,461,464,464,393,429,418,420,417,348,364,353,357,359,392,333,335,356,380,488,390,405,432,466,615,506,536,576,607,652,615,622,646,660,624,638,632,641,644,598,597,594,608,610,565,578,571,576,578,539,544,538,543,552,526,521,517,527,537,518,507,504,510,520,522,501,499,512,525,518,499,501,517,527,545,505,508,530,550,491,518,507,511,516,464,462,457,466,477,524,451,467,498,522,553,519,530,550,562,550,538,528,547,554,505,536,534,539,535,360,491,515,504,450,113,218,134,111,104,803,314,580,816,882,637,699,644,641,649,596,612,602,607,613,556,566,553,562,570,523,527,520,530,537,487,494,484,490,498,451,461,451,460,469,383,419,402,400,399,362,356,342,350,365,419,353,357,378,408,535,410,423,463,508,639,551,572,605,632,658,636,639,652,668,632,638,633,640,644,600,609,595,602,611,562,579,566,564,569,540,545,539,546,553,527,521,513,524,546,526,513,508,518,530,510,512,507,513,514,524,505,499,512,526,553,514,509,527,551,512,533,516,521,526,474,477,458,465,479,522,450,451,485,516,560,515,525,545,562,549,545,536,541,553,519,530,517,521,533,397,473,470,495,469,103,271,152,116,104,865,118,338,615,831,637,779,692,656,649,598,620,607,605,607,549,574,562,561,560,526,532,520,529,536,489,499,486,488,495,447,465,450,450,456,390,429,405,402,402,625,640,630,631,639,561,568,554,560,566,521,511,502,511,523,521,508,505,516,529,532,499,494,507,528,519,517,510,516,524,534,506,500,514,532,538,528,526,533,543,477,511,484,476,476,506,461,452,459,485,553,505,504,516,545,550,548,534,538,547,536,534,522,530,544,503,511,487,464,491,118,444,370,281,177,766,108,104,190,474,637,877,835,733,674,590,605,588,589,599,565,571,564,566,570,540,544,529,536,547,517,521,509,511,523,477,495,477,478,486,425,455,439,435,435,383,402,383,380,390,402,367,361,375,392,480,399,401,426,462,599,488,501,536,572,657,607,616,634,656,647,645,635,639,651,613,624,609,604,616,574,590,573,578,583,545,555,538,545,551,524,526,513,517,527,524,505,496,506,523,507,509,494,496,512,519,494,489,502,521,529,501,496,503,524,535,512,504,508,527,551,518,512,520,540,512,537,521,520,522,482,486,467,472,489,525,460,447,467,507,556,512,506,523,548,548,541,526,527,541,608,817,709,648,622,586,593,580,580,590,548,558,541,543,553,527,524,509,514,530,486,494,474,476,488,456,466,452,454,461,409,435,415,412,424,360,379,353,348,357,392,347,338,355,378,481,391,397,422,457,619,499,525,558,597,663,621,620,634,653,646,649,631,641,654,611,622,596,603,614,571,589,572,572,582,552,556,539,538,552,531,524,510,520,535,526,514,499,500,521,535,508,491,506,529,525,524,515,514,527,533,505,498,505,523,535,515,497,509,530,530,528,509,512,529,544,521,505,508,526,537,538,532,536,542,473,506,477,466,469,500,462,451,451,472,558,503,493,509,542,541,550,536,533,538,542,530,521,528,542,488,518,490,465,464,134,456,376,305,215,624,109,105,103,319,653,837,881,789,706,606,619,598,596,606,573,585,570,569,577,554,548,533,536,554,509,529,507,501,510,480,497,477,479,484,437,465,443,436,439,390,415,394,390,395,397,375,356,364,382,