514,531,521,508,504,509,527,520,506,499,507,526,521,511,503,512,527,524,509,504,508,523,517,503,495,508,529,522,508,500,506,530,530,518,506,453,515,491,459,447,474,466,468,459,456,535,506,519,515,520,534,555,554,538,528,520,550,546,530,517,467,539,533,514,489,306,486,474,415,374,298,242,155,116,116,679,537,734,824,760,566,633,600,579,564,534,571,565,546,533,509,550,539,516,506,487,522,516,494,485,457,496,488,471,460,430,473,470,451,435,380,439,428,402,381,367,389,381,366,356,422,389,396,392,398,510,452,466,472,485,593,543,559,564,576,611,621,626,618,611,591,627,623,604,590,572,603,602,582,573,544,580,570,556,548,525,555,552,538,524,518,538,539,522,513,504,528,531,518,497,505,522,520,505,498,504,523,522,507,497,510,524,524,515,509,513,530,530,519,506,506,525,527,513,503,516,525,525,511,502,510,531,526,510,503,510,531,528,508,501,506,523,521,509,509,500,518,524,510,495,500,518,523,512,501,516,513,520,512,507,482,528,526,504,492,451,481,469,454,445,502,467,473,473,483,538,525,534,527,525,527,554,552,535,524,521,544,542,522,512,461,519,490,462,470,215,448,413,324,245,805,177,233,416,630,545,828,723,620,561,531,557,558,544,533,514,542,538,526,511,487,524,524,504,488,473,497,499,489,478,448,486,486,467,454,407,450,445,429,414,371,412,410,398,378,399,380,390,395,389,473,421,441,453,460,567,502,535,550,553,599,590,607,611,597,591,611,622,616,598,587,596,601,591,582,555,593,595,580,557,524,563,558,548,534,496,530,537,522,497,502,504,511,513,502,502,512,513,500,492,507,512,522,510,502,499,522,527,513,497,507,526,537,524,509,497,520,534,520,503,519,509,522,521,520,500,534,533,518,507,505,519,532,515,501,504,516,525,515,502,506,518,523,503,498,509,518,527,517,511,473,519,522,504,489,446,469,460,440,440,515,478,499,510,510,510,522,527,514,507,521,533,537,528,520,495,538,546,525,506,405,492,494,479,437,241,385,320,272,257,813,390,607,773,862,522,714,628,561,531,509,539,539,518,506,490,519,515,500,492,473,498,500,485,475,452,483,485,472,458,421,465,463,449,432,385,429,429,411,396,357,382,382,371,361,415,374,392,391,399,501,437,464,474,483,594,535,562,569,581,606,619,627,616,602,595,623,625,605,593,569,609,611,591,566,547,588,586,558,544,521,558,555,533,516,506,537,532,507,505,491,509,511,492,481,501,515,524,501,494,506,515,525,505,496,516,533,537,517,504,522,536,550,530,514,515,541,544,523,506,504,529,529,507,502,509,522,532,517,506,514,521,541,537,524,448,512,506,486,461,461,452,449,453,454,500,490,517,524,510,516,519,541,531,518,527,533,546,537,524,461,535,545,528,485,303,480,483,427,370,360,236,235,196,185,645,593,809,864,759,539,600,580,555,539,518,553,552,535,518,506,539,539,515,500,491,531,535,511,493,457,509,512,481,457,419,468,464,440,421,364,430,424,392,368,361,370,371,356,347,432,387,407,411,414,527,455,484,496,507,605,564,595,600,597,600,619,634,625,609,577,601,602,584,576,573,593,603,595,579,531,579,579,562,546,506,536,548,533,514,493,516,523,502,494,496,500,512,507,503,491,503,527,507,492,494,522,536,515,494,500,519,535,511,497,508,517,536,522,509,511,532,546,529,504,512,535,545,527,505,506,541,556,530,505,445,508,499,464,446,478,457,469,465,461,518,511,524,518,509,532,537,558,548,533,515,538,547,539,529,481,511,519,490,473,209,474,445,389,295,616,200,172,215,405,567,810,854,737,618,537,552,575,571,546,495,546,553,537,511,492,506,514,504,497,476,500,513,495,477,447,489,506,483,456,430,449,462,452,434,389,446,441,410,386,374,400,405,383,363,435,411,441,442,443,552,467,503,518,526,604,597,630,622,605,578,622,635,616,580,539,595,608,595,567,550,543,572,570,555,544,552,573,581,568,519,532,541,528,521,496,526,536,535,515,498,505,521,520,505,501,502,524,519,506,493,518,519,509,503,501,509,536,537,512,505,512,527,519,507,508,521,533,518,503,482,527,543,516,488,451,487,493,473,450,523,484,522,525,515,536,545,564,548,528,512,559,569,553,523,497,532,545,529,508,407,492,508,497,453,106,354,257,167,120,776,229,476,685,812,565,684,634,599,583,542,571,574,571,563,512,541,554,542,526,493,523,532,520,509,470,499,510,503,478,444,473,478,462,441,394,449,453,427,399,366,395,396,389,372,406,371,384,384,387,491,441,472,477,479,600,531,578,592,589,628,631,652,643,625,586,643,654,633,604,560,590,599,582,559,534,572,576,555,539,505,552,562,545,516,499,507,524,520,506,515,503,518,520,514,506,523,533,525,514,517,500,517,523,525,515,518,530,535,526,517,509,524,524,517,510,524,531,528,521,433,522,526,492,454,478,438,444,450,466,508,506,531,530,512,530,532,560,561,538,512,545,556,539,517,479,532,558,536,484,256,507,498,429,352,403,181,145,113,162,640,666,841,857,735,553,620,611,585,561,529,555,562,553,534,492,535,535,527,505,485,496,511,503,492,457,481,494,489,472,427,458,467,461,442,368,418,420,415,391,337,349,351,339,324,448,373,436,466,457,553,442,474,508,543,599,559,582,592,594,604,621,636,634,619,590,601,620,613,594,573,598,613,611,583,529,580,588,559,527,529,543,569,563,535,496,549,558,540,508,506,512,522,516,500,502,524,534,526,509,504,511,537,533,517,512,505,519,524,515,527,521,536,538,534,458,525,516,496,477,430,454,434,423,420,534,455,474,489,504,455,572,601,590,519,520,411,417,430,463,576,597,677,690,626,257,570,533,460,367,339,160,116,105,121,628,590,806,847,731,569,584,598,599,571,538,582,599,590,554,504,553,580,561,522,484,509,527,515,489,473,496,511,494,471,403,477,481,454,420,347,401,410,399,369,348,347,358,352,346,413,365,398,411,408,521,431,465,494,511,610,541,577,601,605,613,615,634,637,628,586,606,619,622,605,554,585,598,592,565,521,562,569,558,535,516,532,549,552,542,361,494,475,436,400,651,342,404,518,610,557,657,636,589,567,525,561,577,565,538,480,533,544,512,483,428,488,496,479,433,518,451,475,495,506,543,541,568,567,552,533,548,568,570,546,507,535,545,547,524,435,513,518,511,476,355,445,470,450,413,301,253,233,212,181,689,515,731,862,813,524,606,575,556,526,538,530,548,547,541,488,531,522,509,491,479,491,498,501,493,465,482,492,491,484,420,462,475,479,444,374,409,424,420,396,367,375,401,405,382,417,377,417,436,420,522,445,493,517,513,606,564,600,609,601,593,632,666,658,622,570,593,609,604,580,543,574,580,575,555,533,546,559,560,547,511,528,532,539,527,509,505,515,523,517,497,508,509,515,503,494,493,504,513,501,515,496,512,534,523,473,510,520,520,503,459,468,471,471,456,523,471,505,532,533,548,525,539,553,547,534,554,572,579,557,495,534,550,563,536,351,471,489,488,420,115,282,203,164,124,829,279,547,784,880,569,716,643,609,583,540,570,587,587,563,508,525,500,512,513,487,514,531,532,512,473,491,505,513,500,429,461,470,473,451,381,416,419,426,408,343,359,363,365,351,364,351,372,383,369,514,390,434,479,500,592,541,574,606,607,569,598,614,623,602,608,576,604,634,615,567,611,621,614,584,534,568,585,581,551,524,536,553,556,535,496,537,553,540,510,488,509,538,532,506,497,508,532,542,517,508,498,530,540,532,457,508,518,515,491,453,455,467,466,454,518,468,497,536,530,545,524,547,562,555,522,542,549,550,539,486,516,529,537,515,350,456,464,470,413,103,286,203,139,112,800,223,451,674,823,578,706,664,637,600,519,559,567,559,536,507,511,524,543,532,480,501,522,526,508,429,476,479,475,453,382,428,423,412,393,331,374,375,371,352,371,329,347,367,365,458,389,415,447,454,628,494,561,611,619,633,627,649,666,649,606,633,637,641,628,574,596,600,605,592,541,561,563,576,570,527,524,532,547,535,519,513,509,519,518,499,518,529,531,520,524,491,498,518,528,488,526,544,548,519,450,470,480,487,465,492,468,506,522,505,553,515,557,583,568,546,559,577,593,571,143,408,378,338,231,627,116,105,177,391,599,821,854,760,656,583,588,604,611,595,585,569,580,601,597,467,584,578,552,495,445,464,469,470,453,446,441,449,462,460,414,428,431,442,435,348,401,389,384,365,377,344,365,394,392,469,380,405,431,455,549,487,519,547,554,587,559,580,608,598,599,600,622,632,617,595,609,635,639,611,545,595,599,594,566,538,549,564,565,550,520,522,535,551,536,494,514,517,530,511,504,488,498,511,514,462,508,518,522,493,489,450,462,494,508,525,469,475,497,512,552,535,550,562,557,537,550,553,561,554,525,529,532,541,535,458,518,518,517,478,235,437,405,375,336,430,150,117,105,206,595,682,848,816,678,582,583,614,630,610,542,574,584,592,571,481,531,540,554,521,498,498,542,559,533,457,493,510,516,487,402,456,474,483,442,356,386,392,401,375,348,348,365,376,362,441,360,390,420,438,570,456,496,539,564,611,578,594,621,619,603,600,610,627,618,562,591,589,595,584,559,558,577,593,579,550,543,545,559,558,509,546,546,544,526,507,494,501,521,522,500,491,488,511,516,496,498,507,521,513,465,474,462,478,482,532,439,465,516,533,563,535,562,590,580,543,539,541,559,552,547,562,579,578,564,444,531,505,488,475,163,378,343,301,209,743,123,132,326,556,577,835,776,686,619,563,561,565,570,564,533,565,569,569,553,517,522,529,541,536,459,495,497,511,496,439,449,461,479,468,377,417,412,427,417,382,361,375,388,387,418,381,401,426,435,476,419,439,476,485,556,487,518,556,558,567,563,598,624,606,636,571,608,648,653,560,624,613,597,578,539,564,581,595,568,515,535,554,565,547,501,503,511,519,512,512,495,501,522,529,523,503,509,527,525,507,518,527,530,525,462,486,465,460,462,494,448,456,479,491,541,500,520,544,550,554,540,546,570,570,522,558,555,556,541,486,511,512,500,492,149,438,380,340,250,584,115,106,129,340,629,797,830,741,669,594,622,639,654,636,571,569,577,604,606,567,542,552,576,582,500,543,536,542,524,467,482,475,484,480,392,444,430,430,420,352,369,370,385,381,353,336,335,330,327,465,365,399,440,453,587,476,505,548,580,618,593,605,625,631,574,609,618,629,608,560,557,572,587,577,569,556,556,572,572,515,510,523,543,537,502,501,514,525,506,526,516,542,572,559,463,506,512,528,501,475,453,473,504,503,519,473,510,551,541,539,519,542,568,562,526,529,538,555,548,491,516,518,532,525,382,476,482,468,423,130,290,201,160,119,743,315,544,771,842,599,652,620,622,610,552,593,594,602,591,534,528,532,550,544,494,518,509,515,508,466,484,485,494,485,432,454,447,460,457,376,406,410,429,427,394,362,386,415,413,522,432,465,511,527,594,540,581,596,601,629,608,638,671,663,591,600,598,617,616,561,565,553,566,572,485,545,547,549,520,530,502,529,542,550,503,498,499,518,515,512,498,509,525,538,525,491,494,529,542,515,514,508,522,525,538,504,510,543,561,466,518,507,504,490,464,452,448,453,465,530,479,515,545,542,556,530,543,578,582,517,537,539,555,545,486,493,498,531,531,385,456,476,489,447,104,285,185,125,108,778,276,554,796,873,608,681,654,650,638,551,583,583,589,578,533,530,531,553,554,512,510,508,516,525,480,503,500,511,501,444,460,451,465,466,405,427,413,410,412,384,391,381,383,392,440,377,392,420,439,519,430,451,497,520,582,521,535,561,586,600,586,590,616,621,563,593,595,597,589,560,547,556,577,585,564,535,548,568,584,532,534,538,563,566,499,513,522,542,534,524,472,502,542,543,537,518,533,564,569,519,512,511,521,520,512,521,510,510,518,544,468,473,507,537,490,551,555,554,532,484,451,443,468,487,526,474,469,485,516,549,516,514,527,541,542,545,541,542,547,521,532,523,533,538,465,500,477,470,493,122,402,353,269,176,727,107,103,264,508,608,832,775,695,631,568,595,591,606,608,560,528,536,572,587,493,523,526,537,529,404,414,424,440,436,349,373,361,375,376,458,372,385,408,445,584,480,508,547,581,638,584,599,614,634,601,626,613,610,613,580,589,583,585,592,556,562,545,556,571,539,544,535,544,550,525,525,516,524,539,520,508,511,524,526,515,513,511,518,532,521,503,506,523,526,506,505,502,530,543,530,491,507,541,554,542,519,525,553,571,490,520,519,539,533,530,519,529,547,552,458,494,474,491,499,829,132,281,511,727,558,762,654,603,583,567,546,549,566,582,518,545,534,540,536,491,501,493,508,512,463,471,466,481,497,463,436,430,459,476,429,436,433,459,457,375,405,394,394,402,422,360,362,398,430,506,404,412,451,494,565,565,572,589,591,543,551,548,560,566,544,526,528,541,554,534,528,523,533,547,524,510,495,505,516,507,524,513,517,520,529,488,497,522,548,507,496,486,508,527,505,488,481,488,507,505,495,494,511,521,480,492,485,482,485,476,465,456,452,470,502,478,478,503,524,548,503,527,556,570,553,523,524,552,569,510,524,516,512,530,247,462,399,364,301,725,198,142,276,512,588,849,829,728,649,541,553,545,552,556,514,518,496,492,511,510,497,484,489,512,509,501,490,500,517,480,487,472,477,488,440,468,451,446,448,392,419,398,393,402,414,371,361,384,408,486,403,405,432,472,575,480,492,518,563,594,564,559,574,606,569,584,573,580,571,607,574,601,628,640,570,588,586,591,603,546,527,529,551,571,532,510,512,544,560,537,493,503,523,545,528,519,511,527,541,518,501,496,513,534,508,486,492,513,525,524,507,528,550,551,494,512,520,518,504,541,511,523,544,557,470,514,498,487,484,456,459,462,462,463,519,453,467,491,522,551,502,506,527,549,550,538,528,531,556,508,524,518,519,520,408,480,486,488,459,173,321,229,203,160,743,345,557,764,832,580,645,594,588,593,567,556,554,574,589,495,532,518,523,523,500,485,506,527,522,498,491,504,527,539,455,465,463,476,478,416,428,428,438,441,399,383,375,387,401,487,397,404,432,470,550,486,479,500,544,600,543,546,563,589,615,589,577,594,626,594,595,586,596,609,548,580,565,557,566,533,534,535,541,544,518,518,506,523,535,501,497,494,507,518,510,475,471,492,509,544,518,542,552,563,535,516,514,533,554,564,489,500,546,588,534,519,511,542,574,544,495,500,527,553,465,524,513,517,511,476,450,467,490,499,530,455,462,483,516,548,518,516,530,542,542,547,548,550,557,521,524,515,516,526,435,482,455,473,476,160,388,316,245,222,814,157,322,547,756,562,708,601,563,567,550,535,519,534,554,523,526,529,533,536,536,515,516,531,543,512,518,501,503,519,490,492,474,487,508,427,447,411,405,430,411,399,384,387,408,443,382,365,370,416,534,443,431,456,524,624,525,525,551,594,615,631,627,631,631,632,602,599,607,624,589,618,597,589,595,512,578,554,538,535,539,507,503,510,531,551,535,536,547,560,475,519,491,475,470,516,488,511,536,543,552,493,493,512,547,545,533,524,532,554,490,520,507,517,518,498,466,462,485,509,508,456,448,481,514,554,491,494,521,553,521,530,536,557,556,538,499,500,516,537,505,523,518,517,507,256,497,461,423,370,422,148,115,105,202,669,611,744,745,690,564,641,600,568,556,578,579,600,606,601,542,546,521,530,545,523,522,502,494,520,476,496,472,468,477,426,457,438,425,428,401,407,393,395,407,421,384,372,378,411,463,407,393,404,442,560,448,456,485,538,625,560,566,590,625,661,595,586,610,650,607,620,593,599,616,565,593,578,574,580,558,538,524,540,563,539,527,521,539,558,544,494,472,503,537,518,532,514,506,520,539,525,539,540,537,511,521,494,481,491,490,511,505,500,496,536,489,496,508,518,531,522,505,497,518,552,522,510,515,539,477,540,518,517,515,482,430,424,444,467,537,476,482,501,536,561,520,509,500,530,574,550,530,524,553,556,553,529,542,566,430,503,456,471,477,108,358,262,177,123,843,107,286,542,760,591,758,660,628,619,591,569,568,578,595,567,571,556,559,570,521,538,506,509,515,490,509,487,482,486,462,476,457,454,464,408,444,425,407,403,384,402,382,369,378,398,371,354,358,382,490,400,402,428,464,593,501,512,529,567,632,598,593,604,628,645,609,601,615,648,592,608,586,581,597,585,565,550,562,585,554,560,542,548,566,582,513,500,535,576,548,545,518,520,550,518,512,494,494,499,554,515,504,524,549,524,536,515,507,514,531,500,474,479,512,550,516,506,520,541,546,533,522,526,533,487,550,538,521,501,458,474,456,431,431,510,464,464,465,481,561,530,531,534,551,523,551,542,527,520,523,527,524,517,519,448,500,467,484,486,107,386,286,176,122,829,102,218,439,678,616,771,670,627,606,587,607,591,588,593,552,557,536,526,534,539,545,535,529,536,512,516,489,485,499,464,498,479,467,468,413,440,419,410,413,365,390,358,342,357,382,346,336,339,360,474,390,393,403,436,598,508,538,543,559,635,616,618,615,618,613,645,633,613,609,593,604,587,571,577,580,588,568,551,561,541,570,555,535,535,538,523,509,503,526,513,529,505,488,498,509,495,485,485,501,565,526,511,528,559,582,536,507,525,573,505,530,497,503,515,481,469,460,470,482,511,458,450,467,496,567,505,500,515,549,548,552,534,529,535,540,543,525,514,526,440,518,480,458,464,246,388,354,295,246,832,181,217,422,650,582,823,695,608,584,545,561,533,517,527,534,536,518,518,531,477,518,497,485,483,482,466,477,493,496,491,457,457,484,507,430,445,414,399,415,390,396,382,374,381,507,379,367,375,438,530,503,463,447,473,542,582,609,585,556,602,527,520,531,563,587,594,577,563,564,589,599,595,588,587,590,584,582,572,574,525,602,578,528,506,494,530,520,494,484,507,507,507,491,494,511,510,500,487,485,524,523,519,508,516,515,529,519,501,506,535,517,503,495,508,520,540,530,510,499,461,521,505,476,461,518,464,459,457,481,558,528,525,525,536,538,551,532,531,538,570,526,534,543,553,524,562,543,532,522,317,506,450,404,381,491,241,189,127,247,634,699,825,804,704,570,587,559,552,557,534,553,535,533,536,503,515,502,493,494,497,492,480,474,480,461,454,427,423,451,402,438,403,390,394,387,380,357,356,370,437,381,373,372,396,587,429,438,486,561,629,580,585,599,625,633,605,594,601,622,649,604,577,595,632,574,604,543,530,551,700,574,583,624,683,482,645,553,494,486,505,497,480,486,493,548,506,504,509,529,524,545,539,521,509,540,537,547,545,534,461,543,535,510,479,470,461,451,445,444,521,482,488,491,494,552,538,546,543,541,522,557,548,529,528,530,522,513,511,514,441,511,502,504,474,105,381,261,152,115,827,117,320,551,765,623,738,651,602,602,621,622,596,593,605,570,595,571,553,557,414,473,452,422,408,494,428,422,430,459,596,522,527,543,568,627,605,600,598,603,612,631,616,602,600,593,598,569,559,570,600,588,565,545,567,536,579,524,508,511,559,537,517,513,538,530,539,506,500,512,540,528,508,508,522,480,516,490,485,490,593,484,489,512,562,566,571,522,507,536,503,558,523,498,501,484,473,444,441,465,532,472,465,480,507,554,529,518,525,540,565,555,543,541,548,517,554,538,530,522,414,482,475,470,444,116,374,275,190,154,817,213,440,664,823,569,709,613,565,557,555,568,555,535,536,549,551,530,511,522,494,538,506,482,481,458,489,468,449,453,484,463,457,459,477,419,470,435,403,404,394,404,377,361,372,447,384,360,361,401,542,441,430,450,494,628,542,518,531,580,626,646,632,615,619,633,636,641,635,632,576,618,588,566,565,568,585,574,563,559,514,557,533,507,485,507,516,507,501,493,534,508,493,502,518,517,539,515,494,492,529,532,524,512,516,531,531,515,504,511,515,544,531,510,500,457,519,477,459,453,522,440,408,413,470,600,549,539,523,559,561,600,573,558,551,552,549,520,515,527,496,581,571,532,495,287,476,420,365,344,523,224,152,116,255,636,732,827,777,684,562,606,571,551,553,555,568,536,526,538,531,551,527,514,519,494,525,504,496,485,460,494,479,465,459,429,457,452,439,431,381,434,414,390,376,388,389,384,371,368,456,413,408,401,423,551,479,473,484,518,611,570,570,565,582,624,618,612,599,607,609,625,604,585,587,615,622,594,581,597,575,592,553,532,546,530,589,561,531,512,542,547,551,546,540,525,519,500,487,488,527,529,505,489,507,508,526,523,513,504,533,540,525,506,507,536,557,556,548,543,522,538,529,512,513,506,533,522,503,488,243,543,501,411,338,345,147,114,105,123,679,608,801,825,735,589,647,609,582,586,604,556,546,554,572,522,609,572,539,493,551,555,540,521,525,503,541,503,488,503,437,478,448,433,425,366,433,403,375,362,353,376,368,350,337,422,383,390,386,396,548,444,463,486,509,620,580,595,599,602,608,642,636,619,602,604,619,609,591,588,573,601,582,572,567,536,569,548,525,524,527,536,521,516,513,514,539,519,504,503,521,521,504,488,494,550,540,527,513,522,547,549,511,497,517,562,547,515,481,511,492,476,450,439,461,520,498,479,484,493,526,563,648,594,545,535,518,514,517,523,505,533,507,492,493,422,500,486,485,464,177,399,353,267,222,824,150,284,482,688,408,887,856,562,428,436,409,405,405,404,470,462,451,439,438,452,498,482,458,444,463,468,463,453,455,450,471,459,437,429,397,460,442,406,392,391,346,313,322,358,420,403,380,373,390,493,428,402,398,430,592,533,544,553,562,634,616,611,614,620,583,645,629,599,583,590,602,607,595,584,543,599,589,569,552,564,530,515,521,539,534,579,556,527,520,502,544,535,518,497,484,513,503,487,482,498,505,503,493,487,503,522,517,501,485,510,519,506,497,497,533,534,526,508,507,539,549,508,507,520,476,542,505,472,461,516,495,492,486,490,539,548,523,497,506,545,580,575,539,532,528,554,544,525,520,487,536,522,506,493,316,504,480,417,373,249,230,159,117,106,671,482,697,804,750,588,629,596,575,569,567,591,563,539,538,474,596,585,547,505,501,472,485,492,494,491,513,495,466,461,461,490,481,455,445,385,476,451,419,390,377,392,374,355,355,409,405,393,368,368,472,445,444,445,472,672,503,540,564,609,616,710,677,629,607,604,639,618,593,589,549,607,583,552,542,556,562,552,534,531,536,578,565,547,537,523,545,540,530,521,523,542,544,532,520,538,527,519,502,514,462,555,540,497,465,516,478,487,480,488,487,558,571,545,510,505,495,501,507,505,518,519,515,493,494,502,538,522,510,509,445,494,466,432,421,487,488,488,466,472,549,500,515,509,520,532,577,565,545,527,562,557,577,564,547,481,571,540,486,452,224,466,385,329,283,558,187,140,131,311,634,779,868,788,691,561,609,586,567,556,522,575,576,548,533,485,520,506,475,471,486,516,521,510,488,465,501,509,491,470,426,478,468,452,432,399,397,409,393,379,638,634,622,604,611,620,654,633,606,612,568,625,592,565,555,563,583,568,542,541,539,577,556,527,524,522,562,542,506,497,515,548,534,499,497,514,533,529,509,502,519,523,504,487,500,506,538,528,506,494,524,531,539,531,521,517,530,523,511,509,497,526,522,508,497,527,522,528,523,520,466,536,525,503,476,450,477,476,458,446,506,478,492,478,479,524,533,529,524,521,506,550,567,564,525,514,521,536,542,527,477,504,479,465,479,115,445,373,257,155,812,105,126,343,604,613,883,800,691,633,563,622,611,587,568,540,565,556,536,527,482,563,545,512,487,488,485,485,485,482,466,504,500,487,471,388,472,456,426,400,354,407,408,386,361,364,359,361,356,350,450,395,418,433,437,561,470,501,525,542,598,594,614,604,595,609,625,632,626,602,579,624,602,584,565,578,618,618,596,582,524,590,578,552,528,494,541,537,517,502,545,498,488,462,486,538,583,562,521,510,510,566,562,523,499,519,561,567,527,497,614,550,549,542,566,480,638,628,601,542,444,461,425,409,417,483,476,497,493,482,470,500,493,476,472,466,475,479,468,451,542,492,521,532,529,552,560,560,563,553,521,550,548,537,524,464,537,541,500,458,296,497,476,427,378,368,232,191,128,146,626,637,837,856,729,538,595,569,538,530,544,535,548,547,542,513,552,537,506,500,485,530,512,484,469,500,504,486,461,470,420,517,500,461,436,356,425,419,384,350,347,377,381,358,340,420,385,408,412,410,518,446,473,481,479,592,571,603,599,584,642,603,629,634,633,593,654,657,633,606,555,604,611,580,562,522,572,571,552,533,534,533,539,549,550,489,521,503,473,472,500,516,527,500,481,551,526,536,539,544,479,553,524,481,466,494,513,518,497,486,498,512,523,506,496,528,518,536,537,527,483,541,548,531,499,443,486,485,466,447,547,470,501,518,540,532,550,537,525,522,517,548,557,543,526,517,531,538,528,518,423,512,488,467,456,281,408,405,336,280,798,241,316,502,675,544,785,679,584,549,514,534,533,542,530,488,507,504,483,476,475,522,541,513,485,497,496,523,530,528,424,463,450,434,419,417,434,440,399,388,348,452,430,373,339,386,396,421,398,375,475,433,468,478,462,577,518,551,547,553,600,593,596,590,589,599,619,629,604,590,587,620,617,604,591,507,520,526,521,514,497,503,512,511,509,488,505,518,511,497,474,502,514,503,482,529,491,525,528,516,489,543,537,529,514,526,505,528,519,523,450,527,522,481,445,512,480,484,478,497,536,528,530,530,529,506,569,573,532,502,553,532,554,553,549,425,563,542,481,450,254,405,390,327,260,798,243,261,416,623,551,861,776,654,577,526,552,555,544,528,494,546,559,542,511,493,501,515,505,494,474,505,508,497,488,443,475,484,476,463,364,405,409,395,372,438,429,443,436,430,552,469,502,524,537,600,588,604,593,594,597,616,627,618,608,563,604,606,573,547,556,596,612,586,558,530,572,577,548,528,522,555,561,542,517,508,544,550,526,511,505,527,545,527,506,506,524,536,517,497,482,525,526,505,490,538,505,551,557,547,482,539,529,496,485,500,490,502,492,493,514,531,555,554,530,518,514,534,537,512,521,542,552,540,525,468,534,545,533,490,277,488,471,405,344,323,215,173,123,129,648,571,775,828,734,562,620,607,572,560,526,560,549,553,535,481,542,538,512,490,505,500,537,531,511,472,517,510,483,463,450,495,483,450,440,378,476,467,425,390,346,392,400,377,352,398,367,387,377,382,515,435,469,477,480,616,562,605,618,613,610,639,654,635,616,587,625,625,610,596,548,595,602,589,558,526,550,566,551,534,513,536,545,538,521,507,525,536,524,514,505,514,531,522,501,469,463,474,463,452,496,557,584,559,514,491,524,563,552,501,473,537,584,550,500,741,394,648,819,851,567,656,617,581,564,493,580,579,543,499,497,521,550,538,505,495,510,529,520,503,441,500,499,472,447,409,461,480,461,430,383,427,449,433,404,336,375,376,357,333,365,372,402,395,370,476,393,443,472,467,614,502,537,557,589,645,642,678,674,651,596,656,649,625,599,567,602,612,578,554,533,593,610,586,546,531,546,573,559,531,531,551,569,541,521,455,557,573,526,479,491,507,523,510,492,454,515,512,502,481,458,454,469,475,468,514,469,505,525,517,526,519,542,559,551,534,524,539,548,548,490,529,542,538,525,362,474,497,476,420,103,282,192,127,109,776,235,486,742,850,614,674,628,604,605,590,630,653,650,614,530,592,597,582,551,497,536,549,532,504,456,500,513,501,470,445,475,476,439,428,377,472,482,451,409,353,375,393,378,352,375,369,387,379,355,489,408,449,465,468,562,580,598,603,583,563,560,583,577,563,528,569,566,548,532,494,531,533,507,491,530,500,514,526,535,511,525,537,524,504,448,531,540,522,482,521,458,503,536,540,444,520,555,556,499,455,465,506,495,462,624,500,551,609,642,457,596,586,545,478,662,473,506,547,624,413,600,524,470,434,403,393,417,449,439,115,358,291,189,148,811,173,399,613,782,565,715,626,583,565,534,582,589,582,553,496,528,536,527,509,485,496,506,495,491,477,484,490,493,484,435,476,484,476,457,405,426,439,438,427,376,395,398,396,383,411,387,401,405,403,479,433,460,467,467,561,510,543,561,562,603,578,612,625,610,595,608,620,614,593,593,611,625,616,590,540,605,627,608,563,478,542,558,544,493,482,514,558,548,507,500,490,526,530,511,493,505,528,525,500,520,507,546,553,532,534,528,539,545,543,461,519,520,510,490,481,442,437,453,470,506,496,506,531,533,541,483,492,524,553,519,528,534,542,540,509,513,520,539,538,447,472,465,504,500,108,392,303,189,124,861,103,246,504,741,587,806,702,652,614,518,586,601,583,543,557,494,517,548,554,525,538,523,517,512,486,540,556,540,509,436,487,501,490,453,360,414,405,393,369,347,359,356,335,331,512,391,467,517,527,591,511,537,569,588,594,599,599,612,613,575,587,593,602,592,528,556,565,569,554,514,522,542,548,534,493,505,522,534,512,506,515,537,536,512,494,510,515,509,501,503,497,511,525,513,525,503,526,539,533,476,530,543,532,505,472,462,473,470,454,548,493,522,533,541,562,560,560,548,536,556,588,620,613,569,517,565,577,559,530,397,507,486,474,449,145,353,329,265,194,797,114,183,402,626,582,807,723,661,616,551,568,573,570,557,513,547,562,568,543,453,501,513,505,485,429,444,482,499,468,456,474,493,502,484,358,421,411,396,361,361,373,394,389,368,441,389,425,424,414,579,486,537,568,565,637,620,661,669,646,607,650,660,642,616,551,614,621,591,559,494,506,527,531,512,489,492,502,509,501,498,492,512,518,512,491,501,517,519,499,524,504,527,534,525,520,536,555,553,536,440,519,514,490,460,499,440,465,479,481,530,536,579,580,550,537,531,554,566,549,518,545,565,562,537,460,521,535,528,479,201,448,393,337,283,478,135,110,105,220,640,737,867,856,733,571,605,622,624,598,514,559,571,572,543,481,515,536,538,505,466,483,506,515,493,447,466,481,481,467,414,441,448,444,430,340,404,401,389,361,364,342,363,384,377,428,375,413,440,439,511,441,473,489,492,595,542,583,603,597,586,607,638,642,607,572,597,631,631,597,577,590,611,604,584,520,574,577,572,547,502,523,544,552,524,517,505,543,555,532,545,524,558,585,576,480,541,549,523,494,483,482,504,516,489,431,491,508,495,455,453,443,469,482,468,527,474,516,541,537,555,525,550,562,559,527,539,537,545,541,486,516,521,532,521,405,450,468,481,449,117,338,240,199,143,787,272,515,761,864,558,655,576,558,561,524,552,554,557,542,506,518,524,536,523,485,491,498,520,514,476,470,487,501,499,427,463,472,478,459,365,413,425,430,403,381,356,383,407,385,404,394,422,432,411,541,435,490,524,533,594,562,606,619,604,598,600,616,624,610,600,604,620,631,623,537,578,580,582,563,538,522,528,539,546,508,533,531,525,509,508,512,522,535,524,509,508,518,534,526,469,498,519,529,498,507,467,506,538,530,474,500,505,507,485,475,484,492,492,471,513,502,543,551,521,492,537,565,565,518,524,516,553,565,537,477,552,579,581,536,378,477,507,483,421,153,305,242,200,128,709,370,624,813,822,552,628,601,587,556,538,565,566,565,550,506,538,548,551,529,484,505,512,516,500,458,480,492,505,485,422,446,455,462,443,384,412,422,433,404,364,377,390,399,376,433,381,411,429,429,496,441,462,493,494,576,512,545,571,575,604,589,612,625,609,601,606,625,634,621,559,604,611,608,580,506,562,571,563,528,494,509,534,549,518,507,512,542,547,524,508,518,539,544,528,506,510,535,550,532,480,506,513,510,493,464,473,468,476,472,518,461,474,517,521,552,509,519,550,558,490,517,522,533,516,456,480,485,512,517,783,114,179,419,633,594,548,601,634,617,536,588,593,595,561,461,467,498,507,475,372,348,367,392,383,493,385,404,438,464,586,530,552,575,580,627,613,642,659,652,594,606,614,623,615,577,582,576,590,585,542,572,574,577,558,522,539,552,558,544,497,515,523,536,515,494,488,505,515,503,500,483,503,532,520,479,494,520,544,515,425,449,438,437,433,534,434,475,524,536,562,537,553,586,579,549,558,571,594,581,522,535,540,553,541,354,500,477,453,411,153,322,298,234,183,852,141,304,542,745,565,818,738,680,610,559,561,583,600,585,518,539,539,541,533,495,497,499,514,510,467,479,479,480,477,430,460,453,453,448,412,421,424,424,412,350,411,408,406,386,354,336,354,377,371,480,357,401,454,466,578,504,533,567,575,624,589,624,644,630,609,632,639,643,626,573,605,618,628,605,538,566,576,577,562,528,539,565,580,556,506,517,536,550,532,498,504,528,540,517,531,503,531,553,550,456,515,515,512,486,454,442,448,473,469,518,456,487,520,524,544,512,530,556,565,488,524,524,536,517,795,183,406,681,841,561,669,604,593,585,556,551,559,570,565,493,494,518,535,522,437,485,502,504,476,374,412,419,427,402,375,357,370,383,390,447,379,401,419,422,498,451,467,491,496,599,513,549,585,595,607,608,623,638,626,599,578,572,601,607,591,586,577,583,587,543,592,592,586,562,529,538,545,560,554,505,509,503,518,518,473,493,496,506,496,520,456,465,509,529,476,497,485,492,494,500,455,476,516,515,546,516,549,576,567,527,539,553,574,556,574,494,491,531,540,457,578,567,540,492,218,435,432,424,327,595,190,134,185,386,565,777,832,751,641,565,542,556,570,573,538,552,554,575,562,487,495,486,500,500,461,472,472,483,476,427,452,457,468,455,381,402,399,410,409,398,364,370,388,401,460,400,428,453,459,547,474,491,532,547,604,555,575,605,611,600,598,604,617,613,580,593,601,617,609,554,568,573,592,581,481,534,536,539,507,485,488,508,530,510,542,497,549,598,585,506,527,534,552,535,468,511,528,532,500,470,476,505,516,496,500,472,494,510,503,540,523,548,567,551,539,547,562,580,564,502,529,538,547,527,482,494,512,534,505,291,486,471,440,390,263,166,119,106,104,666,504,741,857,780,556,614,599,602,582,547,546,560,574,562,541,551,568,590,577,490,529,539,551,527,496,478,494,532,529,386,471,475,484,448,393,379,402,436,424,364,376,389,407,392,435,376,404,446,453,529,430,441,485,519,603,547,575,599,606,604,596,614,632,626,581,591,598,608,606,573,571,574,592,589,552,559,557,569,563,525,542,536,544,548,497,505,500,510,506,494,479,485,507,509,504,492,500,511,513,483,493,493,505,499,469,462,456,482,482,491,460,483,518,518,544,500,519,537,531,590,563,572,605,618,541,586,589,589,570,417,500,472,487,475,154,373,326,259,210,807,115,265,504,708,573,731,623,602,603,558,553,546,559,568,558,550,563,581,580,500,538,530,530,522,500,471,469,497,503,436,477,460,456,449,405,422,438,452,435,402,378,371,390,412,423,392,402,432,436,481,416,446,480,485,591,499,549,596,606,571,589,607,634,616,599,499,537,603,620,519,534,536,550,549,494,493,492,516,513,522,490,503,523,533,518,518,517,527,530,530,511,503,517,530,519,532,532,539,536,457,488,466,466,471,518,441,449,478,505,550,525,543,558,559,521,540,545,550,542,519,508,506,529,529,491,501,493,491,506,161,434,401,365,259,637,115,106,225,456,620,791,818,761,686,590,587,600,627,618,544,565,547,554,549,542,534,539,557,563,466,524,515,515,497,461,448,464,503,497,420,432,432,448,450,382,372,366,391,396,423,366,373,399,423,482,421,432,465,488,553,479,496,529,549,597,565,588,619,619,607,574,583,613,628,566,587,580,597,590,549,549,544,558,564,515,528,518,528,524,492,513,521,546,529,497,468,479,512,522,515,478,490,529,540,509,495,521,548,538,542,481,490,538,565,503,510,533,566,550,476,472,468,488,491,518,473,491,509,519,548,501,493,515,539,521,541,546,560,546,535,512,527,542,545,461,522,494,489,493,210,423,393,321,247,808,156,213,434,656,553,812,708,631,586,535,537,534,549,556,515,506,511,519,520,504,500,493,500,514,488,486,485,497,502,450,476,467,477,474,430,438,442,457,457,364,399,398,419,405,404,331,350,406,416,512,419,464,509,522,594,512,531,561,589,634,603,609,635,647,563,608,604,609,594,613,566,585,618,636,553,577,560,574,571,530,541,534,549,550,486,506,499,505,499,533,482,498,525,534,508,525,523,531,533,542,485,469,490,516,524,539,523,524,530,489,526,525,524,519,477,472,470,477,487,518,474,486,506,522,556,515,533,547,556,538,537,542,571,570,500,544,556,580,562,410,459,477,488,453,129,332,248,209,145,742,299,533,755,837,575,639,593,589,584,560,560,555,582,587,532,529,530,538,538,513,524,523,521,518,479,503,493,494,498,459,459,460,472,476,396,441,429,432,423,376,377,370,379,380,416,364,373,400,422,505,418,439,482,509,577,515,533,557,576,599,581,592,619,619,632,580,585,619,640,515,598,597,592,569,545,520,545,570,568,528,513,504,530,548,555,527,548,577,578,533,542,541,552,550,535,507,513,527,528,489,517,522,521,510,536,485,513,541,555,461,509,491,486,471,514,442,441,468,501,524,518,535,545,541,561,518,508,511,538,547,568,558,550,546,489,542,530,535,504,280,490,448,423,387,421,171,121,107,183,642,646,815,840,739,520,550,553,567,559,495,476,449,494,516,490,471,493,536,543,478,458,470,504,509,435,461,466,477,469,369,386,369,381,386,368,353,348,358,375,456,374,389,415,443,545,468,485,509,533,628,556,570,601,625,613,613,608,618,626,582,595,588,594,598,582,570,574,594,605,524,554,542,547,546,518,509,501,505,515,514,505,492,497,519,528,500,495,504,524,514,516,500,505,518,480,503,498,510,517,493,485,506,533,536,494,444,436,471,502,573,482,498,542,583,556,543,536,556,569,510,529,520,528,530,536,500,515,547,562,406,474,427,409,423,176,379,317,250,237,859,210,418,642,827,559,753,644,580,567,523,550,539,545,545,492,509,497,497,512,553,469,471,507,542,499,534,518,521,523,451,480,469,464,469,403,444,431,429,427,386,381,372,387,404,408,375,381,405,427,486,398,378,390,459,630,500,531,571,617,644,622,628,646,656,585,638,640,637,616,581,562,566,584,590,546,564,555,568,578,536,515,510,523,542,524,524,511,511,527,514,509,496,495,509,511,505,501,504,514,561,500,506,537,564,493,536,526,535,527,444,457,430,438,453,514,442,455,484,509,575,514,521,542,569,542,564,548,539,548,445,534,524,529,522,391,404,441,471,458,216,308,234,245,215,774,399,630,826,880,567,662,619,620,609,541,545,551,566,558,510,523,524,529,529,491,487,483,498,506,460,482,473,468,467,454,456,451,455,462,393,424,399,394,408,378,376,365,374,393,442,352,353,385,421,500,442,438,451,488,614,499,510,548,592,628,620,634,653,659,613,612,611,616,628,569,591,577,579,587,529,548,550,570,563,437,511,514,520,462,537,451,475,527,563,521,523,530,545,542,536,494,498,519,539,550,518,520,539,553,483,538,518,511,507,468,468,467,480,482,546,459,484,521,548,552,527,517,533,557,526,538,521,526,541,508,520,525,533,540,391,477,496,496,453,102,274,165,115,105,746,228,447,676,810,602,649,606,597,605,562,590,571,565,571,547,544,536,550,569,507,519,511,488,495,505,506,512,529,532,445,481,473,474,473,412,428,438,434,436,410,384,389,409,425,513,426,426,451,484,602,533,545,565,589,618,599,594,605,616,605,616,607,605,611,574,587,571,572,585,537,564,543,542,548,521,512,493,494,520,511,517,502,497,508,503,499,507,523,530,501,500,518,552,554,477,447,438,460,488,551,500,520,563,579,552,522,532,564,580,481,523,520,542,540,374,455,463,460,436,184,267,208,190,129,729,397,622,806,840,586,628,583,583,593,554,562,553,551,564,513,535,521,518,523,504,508,503,511,524,488,482,477,487,496,453,468,455,456,464,427,427,414,416,429,395,414,396,393,403,438,379,387,414,433,523,438,454,475,507,585,526,537,545,566,595,614,607,619,625,568,566,555,572,593,555,530,516,535,572,571,521,523,551,580,504,534,512,505,513,508,500,497,497,510,511,506,506,510,509,506,517,530,538,530,483,491,483,492,492,502,475,464,471,492,520,509,519,544,542,568,518,509,533,570,542,552,539,537,544,503,515,489,486,486,253,494,439,393,350,475,176,129,109,245,635,693,819,801,714,578,576,559,577,597,509,554,543,552,554,512,493,511,533,533,531,494,509,540,553,495,492,488,508,520,436,467,450,461,471,388,372,362,372,390,467,385,404,438,468,565,461,479,519,555,612,566,579,602,624,608,595,597,616,629,605,592,590,598,612,561,586,569,572,576,569,539,533,553,573,504,549,522,520,527,508,501,486,486,506,485,484,475,492,512,542,493,516,538,558,480,515,504,501,507,521,449,457,481,514,566,525,526,549,560,562,569,566,569,576,545,554,553,550,556,446,527,511,497,472,258,411,352,329,319,526,188,141,129,294,626,719,845,819,720,604,563,552,580,607,564,579,548,541,559,516,550,523,515,528,496,491,484,494,506,463,468,456,456,470,402,446,425,410,414,425,402,401,410,429,375,388,364,361,381,399,373,376,397,416,549,393,430,482,537,647,538,550,599,646,648,628,624,638,656,596,615,612,621,623,553,574,561,572,580,541,534,529,528,540,539,529,520,521,540,536,528,520,526,543,518,514,510,517,524,529,506,499,511,523,530,514,500,510,528,511,521,515,518,522,471,482,458,466,482,536,456,455,473,517,568,532,532,552,570,528,540,518,517,542,519,519,517,520,524,414,481,466,478,471,149,346,274,206,198,871,182,383,623,825,580,768,665,620,600,505,479,486,510,529,508,475,461,471,497,456,518,510,493,478,431,441,427,428,443,393,410,392,385,385,430,389,386,396,422,536,431,442,474,522,608,538,543,558,592,610,613,609,605,619,593,589,581,573,586,539,594,586,575,557,561,527,536,547,559,551,541,531,531,554,510,530,516,523,530,485,480,464,475,494,513,477,488,519,541,550,482,494,532,564,544,520,521,542,563,481,518,506,516,518,480,455,444,460,474,532,473,486,509,532,567,530,528,547,570,563,555,547,552,565,494,539,527,523,522,338,478,459,431,403,317,239,180,153,158,684,527,719,820,792,582,604,564,562,580,506,574,553,536,517,473,472,451,450,467,470,460,432,424,445,456,482,485,470,472,386,428,402,384,377,398,381,378,382,399,422,393,395,408,416,587,427,447,484,537,657,608,601,624,666,616,616,597,605,625,608,603,575,562,593,570,598,586,579,577,546,565,558,551,556,519,536,519,513,520,517,501,489,497,512,517,509,497,498,511,531,514,515,523,538,521,512,501,504,523,571,486,480,517,559,487,553,525,500,493,499,473,465,464,483,543,502,497,508,530,560,536,540,559,576,500,528,518,509,494,492,494,506,518,510,278,454,409,388,375,483,167,121,106,241,630,696,841,818,715,586,590,572,579,595,562,564,550,557,571,522,549,535,535,540,509,508,498,498,506,482,492,471,467,480,439,464,444,435,445,394,411,384,377,395,414,370,368,380,402,443,407,405,409,432,519,432,443,466,498,610,535,545,566,600,613,599,592,600,615,604,597,571,556,587,584,599,589,583,591,557,560,543,536,551,539,537,506,499,520,557,542,545,552,566,539,536,519,525,539,509,520,496,488,487,546,529,532,538,547,533,532,517,522,541,480,508,479,469,476,491,463,442,448,467,530,500,498,504,518,569,527,527,544,572,542,535,518,526,546,539,524,506,494,516,249,509,443,401,350,595,163,119,151,363,616,778,834,762,686,580,560,534,546,577,548,544,528,550,574,522,510,494,513,542,509,445,411,456,506,505,485,480,505,528,440,452,434,444,459,408,420,408,413,426,406,378,373,391,410,492,399,414,435,469,585,503,509,533,564,628,585,580,589,618,599,615,603,592,595,576,592,575,563,566,580,573,564,564,579,531,554,530,528,538,530,517,485,486,518,497,512,493,494,495,486,490,478,467,475,520,498,514,517,522,539,512,518,529,544,544,502,491,523,551,475,503,474,464,478,539,463,459,487,526,591,544,535,547,584,559,565,550,556,570,559,546,545,554,577,482,520,497,467,486,163,426,374,309,228,731,123,131,313,544,565,804,730,640,589,547,560,554,555,555,563,534,539,555,568,527,533,516,514,531,506,502,494,498,509,471,477,450,452,475,441,455,436,439,453,396,410,387,383,395,409,382,373,382,407,470,391,371,383,435,606,477,486,520,576,653,597,599,632,666,617,624,602,607,628,581,596,580,590,607,558,533,514,527,550,564,542,536,539,561,536,550,533,526,540,525,528,515,507,517,525,518,509,512,518,536,515,508,513,531,532,527,511,510,524,435,482,445,422,433,527,441,452,470,505,555,528,521,522,541,548,547,531,527,528,554,559,560,558,557,402,506,448,461,464,143,351,280,182,171,884,233,472,724,862,532,558,536,534,533,512,526,518,503,506,474,495,480,467,474,487,482,477,467,473,452,479,457,444,449,414,437,419,406,409,373,397,378,365,369,435,370,379,404,421,494,427,434,460,487,589,487,504,532,570,644,588,589,598,622,584,639,622,598,572,606,586,577,590,618,580,549,505,533,568,567,556,540,545,572,554,536,513,512,541,531,525,495,505,530,524,503,482,490,516,520,509,496,497,509,542,516,513,520,535,560,519,516,520,539,488,540,527,513,501,484,468,457,459,465,527,484,480,491,510,571,528,534,542,558,550,555,533,523,532,502,528,514,503,501,404,490,495,473,433,140,338,219,170,126,743,334,554,750,816,558,637,563,533,551,601,534,503,528,582,540,574,540,529,538,544,523,512,511,532,511,530,509,505,513,434,486,470,450,443,401,412,399,371,369,408,397,384,372,394,465,400,405,416,436,550,484,503,513,527,604,566,572,577,591,615,599,584,583,601,594,602,586,580,586,546,577,566,559,564,549,533,537,532,535,515,531,520,509,512,522,502,491,487,504,526,509,481,476,505,512,522,502,500,515,511,475,463,480,495,564,521,515,532,552,480,457,446,439,460,560,477,491,512,546,551,546,529,532,538,556,550,546,535,539,484,551,529,505,479,281,478,433,383,350,491,212,195,164,266,630,673,815,809,706,562,586,551,534,549,535,541,522,514,522,505,530,509,497,499,504,509,498,494,497,483,492,473,463,468,458,465,433,402,433,399,450,424,410,412,410,390,386,380,393,464,422,438,448,459,551,463,492,520,542,618,545,545,569,599,637,615,604,598,616,612,617,595,594,599,545,607,583,561,552,559,521,486,495,527,538,559,528,509,515,527,539,520,500,512,515,520,503,496,506,533,508,485,494,525,526,541,521,500,510,565,525,522,533,555,556,543,524,527,544,498,533,508,489,498,438,468,436,403,406,567,463,475,509,548,590,551,544,562,581,552,568,540,533,549,490,525,506,500,499,371,489,470,443,427,310,270,200,138,129,678,534,730,817,762,579,628,583,559,569,560,574,556,544,548,524,546,531,513,512,514,512,496,492,499,470,511,500,482,473,447,463,450,428,435,382,381,372,369,366,628,563,588,601,615,646,598,588,593,615,626,637,604,592,603,557,634,605,566,552,496,536,500,484,486,533,499,491,484,506,515,526,506,498,501,507,518,506,494,497,545,500,479,486,513,543,549,527,506,519,559,541,525,521,540,524,553,530,515,524,475,491,452,443,459,557,456,440,475,520,576,553,539,533,553,551,562,542,532,537,531,533,524,527,537,421,473,437,434,421,206,356,244,209,194,824,352,551,751,869,577,702,604,567,571,548,553,521,511,523,524,535,518,504,511,509,515,495,485,490,485,505,491,484,483,456,487,466,456,453,423,450,436,423,421,402,412,393,374,380,456,411,396,393,424,498,467,472,466,472,570,517,519,525,537,598,579,578,560,572,613,608,606,582,593,562,608,589,567,553,560,567,564,556,561,524,545,518,497,509,547,494,491,523,565,586,513,497,519,553,580,580,553,540,552,522,580,556,534,524,510,513,486,474,484,545,515,506,500,513,484,545,523,497,478,462,488,468,442,436,530,478,490,503,512,354,500,471,417,399,385,280,227,170,190,654,584,746,785,726,570,603,551,533,549,528,565,550,538,539,548,512,506,513,534,539,501,451,461,504,503,518,488,479,492,460,471,432,427,445,396,438,406,390,393,401,376,365,365,380,475,403,406,415,441,564,503,504,508,527,620,584,574,569,586,577,624,605,589,582,608,580,595,602,604,573,604,589,573,567,534,571,547,531,531,520,528,520,504,504,504,514,494,479,484,495,503,486,470,474,516,513,502,497,498,531,521,506,496,513,530,536,529,516,514,562,524,503,499,524,546,559,530,522,528,499,521,480,467,480,570,491,497,505,527,616,571,547,554,586,558,600,569,541,542,483,549,530,514,503,375,464,462,435,398,201,300,207,170,125,743,432,651,807,837,549,654,593,562,543,536,558,552,534,528,521,537,522,508,509,499,514,495,485,483,479,503,476,454,451,460,480,465,451,447,417,448,429,415,417,337,396,368,358,352,494,352,372,412,460,571,491,477,490,527,613,591,564,550,582,642,621,595,587,607,624,643,622,608,614,578,615,578,555,566,539,572,542,532,531,513,525,500,488,494,535,530,512,505,526,511,533,515,502,503,517,512,501,491,497,524,524,524,510,517,562,538,536,531,544,530,568,551,533,532,451,507,472,456,450,509,456,451,460,490,537,519,506,495,520,545,537,522,518,523,518,557,541,525,518,430,505,509,488,453,115,366,257,160,118,832,309,570,791,878,599,732,637,592,586,585,604,596,596,588,520,570,539,517,506,495,511,492,477,478,459,499,476,452,452,454,466,461,446,444,397,459,439,421,405,387,396,395,384,377,429,405,406,408,416,507,454,462,461,473,589,539,551,559,571,603,606,601,590,589,600,608,595,580,586,579,598,552,509,534,501,607,587,556,519,541,501,506,516,530,543,527,517,517,525,518,540,511,489,497,533,546,544,527,524,543,536,514,504,519,529,555,534,515,513,526,538,537,519,509,537,539,525,514,525,485,534,503,470,467,488,474,453,443,455,551,512,502,498,519,536,562,553,534,531,538,548,543,534,528,445,538,488,445,453,263,415,371,303,246,833,262,294,464,661,520,866,749,610,537,515,524,526,517,506,497,521,507,490,479,459,514,498,475,455,488,478,488,479,474,469,501,487,471,469,414,473,451,410,397,399,426,416,400,390,429,403,392,379,381,528,470,480,489,506,603,548,536,532,552,606,620,609,592,589,611,606,587,582,591,583,616,610,598,582,531,583,579,566,549,510,534,527,514,508,501,513,507,494,489,495,507,495,488,486,518,515,506,489,490,527,532,512,492,506,520,542,535,513,509,530,543,538,522,517,509,549,530,506,503,463,493,467,447,447,542,486,498,501,518,586,565,565,552,562,498,580,540,506,491,367,505,476,437,410,307,278,218,149,127,655,551,743,812,750,539,599,562,542,526,532,570,567,538,522,524,548,535,515,509,521,523,515,503,505,470,528,505,477,465,448,476,464,445,437,415,453,427,412,408,372,416,394,373,365,429,393,409,410,409,516,469,479,476,490,582,548,555,564,577,619,602,615,610,607,592,637,628,607,591,564,595,556,487,500,544,585,571,553,545,559,557,571,575,562,507,562,538,511,504,487,525,522,513,499,505,488,489,496,498,518,523,518,499,494,519,543,544,529,512,515,536,539,541,522,450,520,508,468,443,488,466,450,435,446,565,528,540,522,526,549,582,554,525,526,549,568,542,520,542,457,530,490,488,484,146,423,354,238,176,577,542,517,505,531,541,584,561,519,520,541,559,546,528,530,450,546,520,493,469,446,446,441,434,436,450,458,450,438,440,388,452,415,386,380,435,412,416,414,413,481,456,465,461,462,583,519,543,546,554,605,606,601,594,593,589,624,613,589,578,561,608,602,574,561,515,555,543,528,513,480,523,509,491,492,521,490,503,506,512,531,524,516,514,518,503,535,532,516,503,537,486,481,506,522,539,550,536,530,530,576,561,564,565,569,460,575,545,505,473,460,464,463,460,455,504,483,494,494,476,554,543,569,582,568,517,558,549,530,515,468,533,524,493,462,266,459,415,371,311,645,271,237,261,432,559,823,848,735,616,527,556,533,512,505,514,545,524,501,503,512,517,521,509,498,475,515,504,482,467,467,488,483,472,465,433,485,476,451,438,375,431,405,378,364,378,376,305,289,327,479,423,426,427,444,615,512,517,523,559,615,652,639,608,608,592,622,609,592,581,584,599,604,601,584,551,594,583,560,545,531,563,556,537,521,515,533,526,517,512,490,519,513,500,491,506,511,515,506,497,507,518,506,492,497,511,512,508,505,501,500,525,518,494,487,506,523,522,516,518,502,485,461,471,483,515,525,531,502,481,547,546,546,533,529,578,589,609,592,576,543,591,594,586,566,417,525,495,479,446,139,399,333,233,187,845,144,326,558,763,551,785,676,595,558,529,555,553,547,534,495,534,525,509,497,484,509,511,502,485,468,498,492,479,464,455,485,476,454,443,406,451,436,418,401,385,433,407,369,359,406,409,402,387,382,495,449,456,452,462,600,542,555,561,568,552,632,621,565,501,639,620,634,585,587,598,658,617,579,575,552,613,590,553,540,502,512,526,516,502,528,504,509,509,512,534,537,532,528,519,501,547,549,532,513,483,512,515,500,478,528,509,521,509,505,536,542,537,527,524,481,556,548,524,496,414,473,446,414,407,491,440,462,478,483,530,515,530,534,526,548,549,560,553,540,497,568,566,550,522,280,503,487,415,343,295,255,241,208,155,731,571,800,884,853,570,651,584,560,547,519,588,570,552,532,477,524,516,494,479,464,480,470,454,452,440,476,469,455,442,482,465,488,496,486,395,477,445,414,392,361,409,408,389,356,412,401,417,399,392,500,431,444,457,467,591,536,567,583,581,612,608,608,605,597,587,628,619,592,583,572,600,598,581,565,542,590,577,549,526,512,562,542,509,497,551,495,407,416,482,564,568,536,515,537,557,572,550,539,557,514,561,536,507,493,488,526,498,464,454,543,518,526,510,520,494,599,627,601,542,405,486,473,433,409,448,412,411,405,425,536,485,519,524,520,536,571,581,569,550,519,556,566,544,522,489,529,530,492,479,149,467,428,374,255,506,114,104,109,280,628,764,836,742,650,622,639,637,616,619,538,627,611,554,514,550,566,536,512,559,524,533,517,514,513,497,536,530,510,496,381,499,473,438,394,371,398,399,378,375,388,377,394,385,373,455,415,431,433,441,545,492,512,510,521,595,577,595,592,588,601,593,584,580,590,586,616,607,592,573,533,615,601,566,543,515,556,557,544,521,499,532,524,498,486,512,523,530,512,501,450,535,534,508,488,554,450,491,520,543,545,574,582,556,526,526,571,572,541,509,528,546,530,511,515,476,550,550,513,492,454,477,468,450,438,515,477,495,489,497,524,543,557,539,522,505,536,539,517,508,524,525,545,551,547,365,513,523,478,409,147,298,213,144,113,737,358,577,773,833,564,652,610,582,568,537,570,582,570,549,497,529,536,517,503,511,514,533,525,509,466,514,501,475,461,428,488,477,403,414,404,441,431,408,405,415,390,394,399,406,433,419,420,402,414,485,462,466,432,437,607,546,589,598,605,632,619,634,635,632,566,639,619,581,557,555,600,610,595,571,523,542,551,545,536,491,527,535,529,509,477,497,513,516,494,490,498,512,493,481,503,505,506,499,497,515,525,530,517,503,533,535,552,531,524,531,552,568,550,528,459,551,550,508,470,484,462,444,450,462,505,532,544,502,482,565,582,548,496,515,493,612,620,561,498,288,490,453,397,361,577,562,557,564,566,496,544,546,524,500,489,499,499,492,491,461,495,492,474,459,422,459,469,457,434,373,414,413,392,376,368,378,378,366,357,444,389,418,429,429,542,478,509,506,514,613,574,578,534,560,622,653,667,636,617,596,639,633,599,587,537,613,614,595,562,503,549,552,527,493,512,540,551,532,512,470,533,538,502,470,516,505,545,548,524,509,523,535,523,514,506,530,535,518,509,508,520,541,536,522,433,518,506,485,459,456,435,452,458,463,512,473,498,505,500,514,536,554,543,526,515,520,524,488,470,507,555,581,547,499,252,521,490,425,345,476,187,143,114,219,643,729,863,826,702,546,639,622,568,530,573,585,607,610,591,488,576,556,512,477,469,522,533,508,473,475,485,491,475,464,412,483,486,460,424,375,400,391,378,369,392,378,379,376,384,455,411,436,453,450,560,472,503,524,541,597,579,599,610,600,578,610,628,624,592,561,590,606,600,583,531,570,580,570,547,514,539,540,530,511,509,535,538,524,507,427,524,530,507,459,532,497,537,525,526,526,547,572,554,528,536,566,590,577,548,419,524,528,502,436,476,444,481,487,474,548,488,517,537,545,536,561,564,548,541,528,546,559,562,546,438,524,505,475,464,194,398,377,323,245,716,147,147,295,499,553,845,805,690,605,510,555,572,550,518,495,522,539,529,510,476,515,521,503,484,456,489,496,480,457,398,473,472,444,410,285,411,412,360,275,396,354,411,394,375,473,446,479,463,447,604,516,560,580,583,622,631,633,630,632,541,617,617,606,578,595,550,587,615,622,558,588,597,592,577,533,549,557,544,531,523,553,568,553,533,495,531,544,524,503,490,511,525,508,493,500,518,542,536,515,450,508,517,505,486,432,427,441,432,429,531,461,507,528,530,542,548,571,573,553,529,544,558,551,539,467,545,557,507,464,275,494,462,385,347,485,208,220,204,265,654,718,860,892,777,524,593,576,571,547,491,522,532,522,504,490,492,512,520,510,470,485,499,500,490,442,456,459,464,456,405,432,439,438,424,369,397,402,396,390,370,352,359,359,365,431,391,424,424,417,504,461,489,489,484,619,543,580,598,598,615,657,675,651,618,587,632,644,623,596,555,602,619,592,559,501,571,556,450,446,521,561,586,556,520,504,545,550,528,508,519,527,550,533,521,517,538,552,545,533,436,510,508,479,446,498,439,446,455,470,546,524,553,543,536,564,566,576,557,545,508,570,584,577,538,500,509,520,497,484,222,499,461,399,313,558,200,140,151,340,557,766,819,716,606,484,545,560,537,498,559,497,528,551,567,498,551,549,528,501,490,508,520,511,494,415,544,599,566,471,430,404,417,431,420,416,454,485,485,441,428,457,527,545,489,393,400,380,360,355,567,464,575,649,628,577,527,529,568,587,554,562,582,592,586,533,542,562,559,542,525,551,565,550,525,538,549,566,562,543,493,544,548,522,491,484,514,526,518,497,491,496,523,520,494,479,526,545,517,484,439,497,518,485,447,476,464,489,469,453,519,513,512,489,491,603,576,620,601,586,553,612,603,574,559,387,541,518,439,400,168,386,393,329,226,733,128,143,316,535,544,837,782,671,578,546,566,592,596,567,524,551,571,571,545,503,518,526,523,511,455,505,520,517,483,461,447,467,470,457,382,453,442,418,391,353,404,423,404,375,410,346,372,398,405,496,415,441,469,491,561,517,549,556,553,564,589,618,607,566,606,598,641,638,618,552,605,613,599,573,506,549,548,531,511,485,511,532,526,505,528,487,500,518,527,532,526,532,537,538,459,535,540,522,481,453,466,470,463,456,533,472,493,510,525,539,552,577,573,540,513,563,592,576,539,505,534,573,578,543,371,484,498,488,416,107,326,255,172,122,803,218,468,714,846,557,715,662,620,580,502,580,596,574,533,495,508,548,537,516,515,506,543,542,512,501,526,528,514,501,426,504,503,472,438,397,428,439,428,407,365,392,397,386,371,412,366,376,384,398,537,440,468,497,516,593,565,597,613,596,575,609,619,623,598,553,566,576,575,568,493,520,523,526,510,488,488,510,511,496,502,495,519,526,513,527,510,538,527,512,441,542,550,526,475,445,447,470,456,438,550,500,543,549,542,569,565,593,586,569,553,595,619,604,577,440,555,562,545,504,301,426,434,392,357,316,221,187,196,180,678,526,730,851,793,560,617,587,575,566,522,549,548,555,547,485,501,488,475,482,469,492,505,494,468,448,481,483,474,461,441,449,470,485,471,372,429,443,432,395,349,369,380,374,350,394,375,411,421,401,519,411,449,478,497,628,566,608,628,635,623,634,668,661,634,557,639,663,651,597,531,564,588,573,542,501,539,555,556,527,498,505,524,515,504,523,503,520,527,524,549,512,511,524,529,495,553,555,547,524,452,474,472,477,467,509,453,473,478,486,524,523,536,544,531,536,530,537,538,526,512,541,543,539,533,455,493,481,490,497,124,407,373,288,176,832,106,164,411,645,568,855,767,674,607,517,560,574,573,553,568,520,545,562,569,532,562,574,570,554,497,544,514,489,480,441,503,497,480,460,400,435,444,439,418,379,396,407,411,388,435,395,405,429,432,512,439,456,478,497,548,527,547,558,555,575,555,578,598,593,567,574,594,598,574,554,570,576,581,573,524,541,546,550,533,495,527,529,530,512,484,491,516,529,507,498,494,526,535,512,510,511,539,548,527,438,530,550,529,486,411,445,470,464,435,555,409,489,548,562,518,566,594,591,554,559,536,581,608,587,462,542,547,542,513,325,462,490,467,392,195,240,173,150,116,702,409,631,807,809,562,625,598,587,572,572,575,595,598,584,524,559,553,547,537,478,517,525,526,504,429,442,445,456,449,377,409,407,408,395,374,370,385,399,384,428,375,399,429,432,479,441,462,458,445,632,581,655,657,637,637,660,677,670,651,635,638,635,620,616,545,625,610,596,570,486,543,535,524,496,493,499,527,543,517,484,482,492,509,498,497,478,490,506,494,500,516,550,561,536,441,474,467,469,455,500,432,449,478,497,565,509,526,548,559,547,558,550,551,548,526,533,543,556,543,446,510,486,482,479,223,387,361,317,249,825,177,246,471,667,535,846,758,665,582,510,529,551,560,537,403,506,514,496,401,509,443,501,539,533,489,507,512,513,493,472,497,514,530,499,454,474,481,484,476,389,421,411,411,403,416,381,378,386,389,496,449,479,508,503,581,508,545,582,594,591,583,595,613,606,571,587,600,619,595,547,568,578,582,568,493,534,521,524,498,486,495,506,516,504,478,486,506,512,497,433,476,501,514,467,509,465,510,544,533,452,504,505,504,479,524,461,494,530,539,553,519,545,576,567,531,567,576,572,547,541,534,550,560,561,482,524,522,533,519,356,454,463,443,401,263,268,203,215,194,681,460,660,789,774,551,606,580,575,563,533,544,553,553,544,528,532,545,572,551,487,524,520,523,511,450,484,483,490,467,438,456,479,491,473,367,417,430,435,407,370,361,380,398,387,437,359,358,409,434,538,447,459,497,526,601,571,608,636,618,589,606,627,641,618,568,589,604,611,595,548,559,570,580,573,527,537,532,545,548,506,518,527,532,520,546,505,512,517,546,511,519,514,516,517,502,514,530,534,525,461,478,471,474,472,492,457,471,490,496,538,501,517,536,546,529,520,529,546,540,505,528,532,539,525,464,503,482,480,493,135,411,369,297,194,771,111,133,361,604,590,832,776,709,645,591,564,566,587,599,578,573,583,602,607,508,558,553,550,522,475,504,516,513,486,442,465,466,470,460,396,439,441,442,422,385,380,375,399,397,424,377,388,405,419,470,422,442,466,469,559,470,471,517,549,598,573,590,610,616,592,600,622,640,621,534,568,565,574,561,537,541,570,595,575,518,526,533,549,534,488,517,532,543,518,476,466,470,509,513,536,503,538,562,558,529,538,557,579,559,427,511,500,485,450,479,432,460,489,480,537,506,531,546,540,550,529,534,555,562,568,554,566,586,583,466,549,536,513,489,180,429,393,364,274,657,129,109,222,442,589,826,840,740,641,563,570,571,587,581,531,549,558,565,558,491,505,507,515,504,471,482,487,491,483,447,460,459,479,469,426,430,429,441,438,335,410,413,423,393,408,352,392,441,438,477,408,443,480,488,589,497,529,566,587,601,597,610,622,615,613,603,628,661,643,559,592,592,609,591,542,546,556,564,553,526,535,550,561,552,518,497,491,505,521,509,505,508,529,529,506,508,512,528,524,399,492,491,485,447,524,369,411,485,524,553,522,538,562,563,520,553,568,581,552,546,524,557,588,577,490,528,529,529,516,213,451,409,371,282,729,199,187,339,556,554,839,825,733,626,529,536,544,557,548,490,523,521,530,515,491,474,476,499,503,476,483,479,489,491,455,473,481,497,492,459,439,434,463,480,407,433,426,432,423,438,414,420,441,447,514,439,468,505,518,573,521,536,562,577,566,557,565,574,571,554,541,528,553,572,542,535,533,556,558,515,530,528,534,526,495,516,523,532,522,476,487,494,510,484,491,493,517,531,511,509,489,515,539,533,559,509,539,575,574,480,523,497,495,494,507,470,468,479,497,553,513,518,537,553,542,542,532,536,541,527,533,519,520,526,473,510,486,464,465,177,457,427,363,262,725,127,122,289,519,599,828,781,705,643,560,578,582,594,585,523,542,542,548,548,485,505,516,538,519,496,479,491,510,525,442,472,468,489,478,410,417,394,415,425,355,411,414,406,375,438,368,409,448,450,509,437,456,504,521,586,516,541,570,591,590,571,571,594,610,594,587,588,601,606,567,587,578,587,586,554,550,544,577,588,522,524,512,511,521,520,527,522,533,539,501,502,499,517,526,522,494,500,527,544,499,508,512,517,517,447,459,438,460,464,523,440,455,506,536,553,504,505,532,550,515,540,530,530,530,545,505,520,558,575,391,508,503,509,455,197,324,256,238,206,828,392,625,825,889,551,715,641,595,569,549,547,545,544,546,477,525,513,503,501,492,455,448,459,487,466,484,466,474,482,453,450,447,456,463,414,430,413,406,417,411,399,381,384,408,459,414,413,431,454,525,457,459,485,512,587,528,542,572,589,582,589,595,598,596,575,575,585,619,608,533,552,545,551,545,455,531,535,535,515,532,462,498,541,560,541,499,514,545,561,530,520,524,552,560,516,509,518,542,548,456,482,466,477,476,497,442,448,468,482,541,504,518,543,553,550,540,550,562,573,550,546,538,542,562,481,519,475,454,479,200,441,389,328,242,751,147,133,314,546,577,831,756,658,611,527,554,548,554,555,509,525,533,531,534,500,486,489,507,522,453,473,462,461,464,475,440,443,464,482,446,458,456,467,469,401,417,402,408,415,407,380,378,385,390,516,435,455,475,506,632,555,604,629,631,624,653,670,651,638,604,614,597,586,603,585,584,563,568,583,536,569,553,548,551,513,515,499,496,510,509,501,483,488,505,494,500,486,485,492,518,492,485,495,521,467,504,476,473,479,576,509,521,556,578,565,545,529,557,571,530,549,536,536,547,496,518,504,488,506,242,455,416,378,297,717,180,123,194,469,604,856,859,779,683,556,550,536,550,556,527,561,556,559,554,493,498,491,508,511,473,464,448,461,478,456,437,430,444,461,440,434,415,422,440,468,431,432,441,463,548,463,485,516,541,553,538,527,543,561,568,546,548,563,577,573,550,544,554,581,542,552,532,537,555,521,527,526,527,528,534,510,510,531,546,390,513,505,508,479,523,488,560,517,504,515,530,530,556,545,491,507,481,488,493,536,491,517,535,543,538,553,543,546,551,176,398,360,285,217,783,128,164,366,598,571,809,695,612,582,575,559,562,577,595,532,539,524,530,544,520,512,506,514,528,487,513,491,503,507,448,468,455,453,459,423,429,426,435,441,363,390,375,383,391,426,301,294,387,441,514,421,428,450,493,650,539,581,624,663,607,595,576,591,605,633,598,580,592,628,609,622,599,614,629,523,573,536,532,542,531,511,509,504,527,535,533,524,523,535,531,524,518,517,538,479,509,498,495,504,470,455,435,449,471,521,474,489,515,538,562,519,537,569,586,530,538,521,519,528,494,518,514,522,516,395,506,509,497,467,297,275,217,169,148,644,515,735,860,807,549,534,537,566,569,562,558,579,603,608,518,510,513,526,536,484,495,494,499,511,465,446,444,460,480,451,439,438,453,470,447,420,415,429,450,447,430,432,438,452,489,433,438,458,490,556,481,485,508,540,583,549,535,555,587,592,574,572,587,595,547,571,557,559,573,497,528,511,519,499,501,517,523,524,524,545,481,499,527,555,530,508,503,528,545,514,507,518,545,553,476,494,508,565,573,530,408,445,492,523,607,545,546,583,624,518,574,556,548,548,528,485,479,502,538,444,497,473,462,471,159,433,399,323,225,750,117,121,303,547,626,820,741,664,639,571,608,592,584,582,554,553,545,547,559,518,533,522,522,531,465,490,465,459,463,436,456,438,438,443,424,422,408,408,428,412,400,396,401,417,473,390,387,413,451,503,473,469,477,498,566,503,523,555,556,623,563,584,613,630,672,609,617,650,677,547,642,606,584,574,524,523,509,510,518,522,524,519,529,527,498,509,499,509,524,545,452,451,487,532,489,545,535,516,511,494,458,445,449,474,550,512,540,558,566,600,526,536,562,590,554,560,530,537,553,495,550,539,527,512,313,497,476,444,413,477,219,169,123,247,618,681,819,814,714,563,544,502,520,560,550,517,432,420,511,563,542,544,576,590,504,519,497,494,513,461,486,467,465,468,431,444,429,428,435,432,413,412,429,439,450,417,402,404,425,533,464,467,476,507,576,537,539,550,566,597,572,564,571,592,601,587,578,586,603,561,575,551,552,559,518,543,529,518,525,525,504,487,502,531,512,506,482,494,515,543,499,497,510,532,489,519,505,505,514,494,438,431,446,480,557,470,452,476,526,568,555,548,558,574,547,560,552,557,556,551,536,535,548,565,478,512,458,450,479,192,441,376,275,221,868,156,296,534,748,573,812,689,611,581,545,563,558,547,546,511,533,520,506,506,497,507,497,485,492,461,478,460,448,449,444,463,451,444,451,457,444,455,457,460,420,424,402,412,429,444,403,403,411,435,513,438,448,467,503,628,496,503,555,613,605,611,591,587,609,610,559,543,574,608,588,587,585,595,607,545,554,533,545,558,508,513,490,486,499,560,521,533,552,561,544,545,535,526,531,475,525,497,484,477,491,454,446,449,468,538,511,519,521,529,578,541,541,542,558,549,570,546,530,537,511,535,498,458,475,249,494,444,405,322,568,195,130,146,344,586,754,776,676,609,565,555,531,537,555,552,555,539,536,553,539,534,518,516,532,511,514,479,454,487,500,505,491,488,506,436,473,455,457,452,434,405,396,400,425,465,422,418,427,451,524,452,446,456,494,603,537,548,567,591,609,598,588,588,601,598,603,594,596,599,559,588,571,560,565,530,546,528,519,521,512,520,506,494,497,509,503,489,482,499,504,494,480,477,496,488,481,455,448,473,519,475,448,456,489,565,515,521,536,557,605,550,565,590,609,548,572,534,531,551,516,503,487,505,515,364,492,449,417,414,361,245,183,138,164,699,571,755,844,791,574,613,570,556,571,552,547,529,535,545,536,542,528,518,536,513,519,503,493,509,492,498,483,476,479,426,478,461,444,425,411,417,404,386,393,446,405,405,404,426,499,446,438,443,466,566,516,511,512,539,601,553,551,566,586,584,592,577,574,584,580,563,546,542,568,551,560,537,526,544,557,527,509,503,528,518,539,501,492,511,548,454,427,460,515,548,530,517,538,562,504,527,495,450,479,583,488,482,527,571,522,564,534,518,520,581,512,523,553,577,534,553,518,511,528,457,490,460,470,478,124,397,281,184,155,842,162,353,576,784,594,743,648,601,592,567,580,555,543,559,536,546,530,517,524,529,515,507,508,520,495,505,485,484,494,459,480,458,459,467,427,438,416,410,421,416,402,375,383,405,374,395,375,356,304,606,436,442,491,559,654,598,584,597,633,629,622,597,601,607,625,613,590,583,609,568,613,598,582,569,550,559,542,527,536,490,535,515,509,497,515,485,494,496,510,553,513,521,528,537,498,543,527,501,496,501,490,475,464,479,536,510,520,532,534,548,539,531,535,541,537,540,519,508,516,519,535,512,495,494,306,535,505,452,405,386,183,120,108,157,686,616,792,809,740,616,652,626,622,628,609,577,551,567,595,511,569,538,529,525,483,494,489,488,490,511,458,444,441,475,452,498,468,441,441,376,431,396,365,362,439,389,394,398,419,487,454,454,461,466,562,497,498,509,529,625,578,577,576,596,597,622,602,585,586,546,578,562,545,543,561,547,537,527,531,551,553,537,523,538,541,540,510,496,510,549,538,513,508,530,542,537,509,509,527,410,519,485,456,381,560,431,438,452,501,548,574,564,556,550,581,532,515,523,554,554,572,544,523,540,493,542,518,492,470,351,514,498,470,432,386,248,213,143,180,629,611,779,783,692,577,596,566,551,557,536,575,562,539,536,533,519,498,490,514,482,527,502,476,474,454,463,443,424,429,438,461,447,433,431,404,426,402,385,389,409,401,387,387,399,524,404,433,459,488,573,530,528,546,564,639,568,579,582,606,654,638,626,625,642,593,641,604,590,584,542,576,547,525,528,509,536,514,492,492,494,509,503,494,487,461,496,494,480,471,525,476,497,509,518,507,526,515,500,497,500,514,505,487,487,546,518,528,521,524,574,548,542,536,544,548,573,544,527,533,500,551,539,507,488,350,517,485,440,406,426,263,211,138,197,638,648,791,769,693,576,585,542,524,537,592,578,565,565,579,540,567,529,515,525,525,529,501,485,505,476,512,472,458,470,432,458,438,427,424,420,419,398,390,400,419,426,411,400,399,494,436,450,453,470,577,516,529,537,550,604,587,597,586,590,598,612,599,577,582,584,592,577,562,568,538,577,543,523,536,503,522,503,488,485,495,503,493,480,475,514,496,484,479,489,548,525,522,508,525,498,542,523,492,488,501,493,471,455,473,571,500,470,439,480,602,593,576,556,560,555,596,554,528,527,495,553,568,566,524,243,493,441,364,307,452,194,172,125,220,644,686,841,825,710,558,613,581,564,553,525,556,551,555,541,510,524,521,514,507,511,512,499,486,492,459,509,489,459,451,417,462,447,424,417,417,393,370,364,383,404,426,406,379,377,479,423,422,418,438,585,502,506,512,543,640,603,597,595,610,509,646,618,589,569,630,534,558,587,623,622,604,569,567,603,565,591,542,527,541,511,564,538,514,506,514,502,449,441,473,555,528,514,505,531,486,544,517,493,482,486,492,477,464,460,484,510,514,504,486,543,511,534,543,542,541,549,549,537,533,512,541,518,482,473,236,528,477,417,332,551,167,120,111,286,585,787,833,724,629,570,576,563,544,546,550,580,560,535,532,493,552,530,511,505,530,457,466,483,510,486,526,501,488,481,440,471,438,421,422,404,434,412,398,402,408,395,384,379,389,498,427,429,440,460,596,532,548,556,565,597,615,613,600,584,591,611,604,592,586,560,584,574,565,557,542,562,548,536,531,509,545,531,509,502,514,515,495,478,490,510,535,512,483,492,526,517,497,497,510,513,530,508,479,491,536,508,480,469,488,581,563,548,530,550,487,592,556,526,507,553,527,527,524,545,559,546,515,483,529,214,540,464,337,238,731,152,134,311,527,583,809,728,634,594,600,581,574,563,579,533,615,597,565,542,518,537,527,506,498,498,525,506,492,490,450,496,481,461,446,415,456,438,417,411,393,408,397,375,375,417,403,397,390,393,480,435,434,437,449,596,517,527,539,563,637,627,623,610,614,601,657,632,601,596,516,602,568,512,491,595,552,577,550,542,547,637,616,561,542,511,541,510,484,485,521,529,507,478,476,537,550,533,515,517,461,542,519,493,465,502,471,464,448,468,561,539,563,561,545,551,593,595,573,554,508,566,567,539,505,515,530,543,524,498,226,539,503,429,347,348,134,111,104,129,671,628,833,818,717,586,644,621,602,586,585,597,582,571,567,496,586,546,475,432,547,542,537,511,515,423,503,460,418,405,360,436,412,373,357,421,359,342,347,379,470,449,450,445,449,604,512,538,546,566,617,630,632,621,616,611,610,608,592,593,571,616,601,586,572,536,575,566,536,516,541,580,574,553,545,497,530,499,475,477,488,522,512,496,481,540,511,510,506,520,497,549,536,520,509,396,489,469,448,434,560,430,471,500,536,592,561,537,531,563,555,606,590,556,552,527,561,544,538,542,371,504,486,453,401,108,351,260,176,127,823,183,415,654,820,601,743,675,625,599,542,608,591,566,545,525,546,548,537,525,500,529,513,503,495,480,509,500,470,466,446,483,455,432,432,400,476,456,429,414,383,396,381,370,352,449,417,404,404,423,553,478,490,493,519,604,583,588,582,586,603,609,538,530,559,601,630,620,592,585,557,616,598,562,551,547,579,568,545,533,519,551,533,509,499,501,535,507,492,482,563,531,532,524,533,494,584,564,538,504,470,492,481,468,462,532,477,475,480,507,527,558,564,549,527,537,538,536,521,521,474,558,562,531,490,446,461,472,488,476,109,414,310,191,129,835,153,375,621,807,575,764,675,614,584,564,563,553,541,543,534,588,566,540,531,528,532,519,508,509,395,395,392,391,394,445,411,433,441,439,536,477,498,509,520,581,560,569,564,559,613,610,623,612,608,564,622,602,577,561,548,574,574,560,544,534,572,571,533,515,491,547,526,492,470,529,524,523,502,506,514,551,534,501,497,514,553,552,526,514,428,531,509,462,436,538,385,401,445,493,570,574,568,548,549,577,589,577,553,551,527,594,573,558,534,466,533,512,464,462,122,455,422,325,174,649,107,102,197,416,635,820,800,705,657,586,639,651,645,614,575,586,588,581,575,519,581,556,509,491,495,546,531,512,512,420,486,453,420,422,382,447,457,443,415,353,369,356,345,338,402,378,386,377,380,451,440,460,454,445,585,506,540,551,560,636,600,591,598,620,524,582,586,575,548,481,520,520,509,494,507,506,523,518,510,447,476,479,475,462,510,460,479,485,497,551,529,538,538,541,529,571,566,546,536,533,548,542,519,522,473,527,491,488,498,187,454,395,280,218,848,153,278,488,696,570,829,721,622,572,535,584,576,542,515,474,564,531,426,415,536,548,564,537,518,514,560,550,529,521,440,533,520,479,449,375,439,426,402,381,404,365,349,346,367,461,430,431,421,435,533,494,515,527,518,597,565,591,589,588,606,619,620,613,603,559,624,615,594,570,531,577,593,572,544,493,526,526,500,490,479,508,509,490,481,495,491,502,490,490,498,512,524,513,496,443,504,494,444,433,473,462,464,446,449,584,529,553,557,570,545,609,602,569,543,549,560,556,542,528,500,579,568,526,501,405,492,488,475,439,125,381,302,219,179,824,183,416,640,819,584,728,658,618,589,555,590,593,574,557,501,557,546,528,507,487,519,530,503,487,472,493,496,482,470,460,470,456,445,450,394,471,465,429,399,393,408,415,400,394,454,416,429,423,428,558,489,514,518,527,594,597,607,590,583,506,618,617,568,477,519,583,570,540,522,507,516,484,454,492,496,508,499,476,475,505,525,559,561,530,471,447,466,463,460,537,497,529,538,520,538,568,582,568,542,511,544,539,523,510,200,476,445,386,291,642,162,119,167,397,593,828,857,742,638,542,586,561,500,509,548,565,562,537,523,507,594,600,560,511,479,519,490,460,463,500,487,481,467,477,442,526,522,479,449,394,447,429,394,375,428,417,435,429,417,491,452,473,476,477,549,519,540,541,534,593,564,583,586,588,569,610,614,597,574,544,579,589,573,562,495,556,577,548,513,513,513,524,530,524,497,521,533,513,495,502,520,522,496,482,471,535,552,533,494,457,478,479,456,436,547,583,597,565,550,464,568,575,541,482,275,491,477,417,359,353,203,162,118,148,629,587,783,807,697,594,620,622,616,613,538,590,593,589,560,528,535,540,542,542,490,527,529,514,501,393,438,447,431,399,361,408,406,384,365,385,376,389,382,377,454,408,425,445,444,522,487,516,526,531,605,561,601,614,608,643,605,632,645,640,565,652,642,608,571,542,579,582,568,545,486,556,548,531,503,504,500,511,515,504,510,553,596,585,542,462,501,506,485,466,512,465,473,487,499,542,536,553,547,535,539,556,558,564,554,521,545,559,550,529,471,519,512,483,457,149,480,465,411,266,540,115,105,113,289,631,785,847,746,666,580,623,632,610,578,555,602,612,589,556,518,571,584,559,523,486,534,539,519,487,373,503,515,464,365,415,439,491,474,424,373,436,454,430,392,402,384,411,415,407,473,421,445,451,453,576,506,547,555,558,608,604,622,614,606,584,623,633,616,596,563,588,595,585,570,531,569,576,565,544,521,531,537,541,530,473,515,513,503,487,452,484,505,499,471,438,437,437,437,438,540,456,492,518,530,557,547,561,564,556,491,569,579,561,530,532,507,558,564,552,460,508,501,503,479,185,435,354,264,233,791,267,485,681,812,533,700,633,570,542,518,540,548,541,532,514,522,533,529,528,482,502,503,508,498,458,479,484,482,476,444,457,462,467,455,398,438,443,434,411,414,395,403,408,409,466,428,453,464,466,537,478,511,523,529,582,561,605,596,577,596,603,628,616,592,560,606,603,586,559,510,578,593,575,534,497,509,550,543,508,442,520,534,503,453,485,465,493,488,484,540,510,551,567,559,485,553,549,542,517,369,194,163,122,185,625,598,795,815,701,560,599,600,600,584,536,558,570,570,553,493,526,543,537,506,466,505,515,502,478,453,472,496,491,469,417,459,462,459,431,381,425,437,422,397,402,397,406,366,369,485,447,482,471,464,562,501,537,552,549,594,598,637,640,624,599,590,607,609,610,560,592,604,596,580,512,550,555,541,527,509,514,517,518,510,525,508,529,528,518,504,526,527,538,527,443,487,474,471,458,494,441,463,478,476,548,526,540,542,545,533,555,574,563,542,541,560,577,561,539,477,532,530,514,511,115,430,388,277,156,808,106,145,363,611,602,840,772,701,643,583,610,636,640,614,517,586,599,580,540,481,518,531,522,497,440,489,502,484,451,436,450,467,463,444,391,444,462,461,429,406,381,399,418,414,440,407,429,447,449,494,447,467,485,494,558,510,541,555,553,576,571,590,603,596,547,575,589,594,579,520,535,558,561,538,496,514,527,525,508,517,491,503,515,518,512,512,530,536,527,491,508,522,529,512,414,485,495,482,439,485,439,476,482,469,585,523,574,587,576,521,610,639,614,560,528,519,536,543,541,436,523,510,508,488,144,412,364,258,197,837,123,298,536,743,564,772,671,609,572,529,567,586,588,553,524,530,549,561,545,491,503,508,520,511,448,488,488,491,473,423,446,457,462,442,426,428,449,459,443,366,420,424,416,380,421,385,430,440,422,514,444,479,509,500,572,550,591,598,580,601,591,625,627,608,576,629,658,645,597,519,596,621,598,553,478,516,532,522,495,465,490,516,517,496,522,479,514,546,537,500,534,552,543,520,458,486,494,504,484,525,461,486,527,537,533,522,543,554,542,530,554,598,590,556,459,520,536,537,503,401,455,493,505,452,111,321,241,184,124,705,287,546,772,810,580,621,619,618,598,542,580,601,604,570,503,547,570,564,526,465,508,533,540,499,496,476,527,553,527,421,490,507,490,449,399,413,424,420,409,405,402,424,432,417,472,417,451,472,473,536,489,514,536,532,587,560,598,622,607,576,590,607,615,592,537,569,579,588,563,495,527,541,540,512,477,507,536,546,515,494,482,515,535,521,512,497,525,547,528,492,508,533,545,519,436,481,500,498,457,455,443,476,493,462,502,491,527,546,520,547,526,575,589,560,533,567,596,600,567,454,529,541,501,487,129,424,417,341,201,752,109,115,309,545,622,853,808,731,662,593,619,636,641,620,542,586,594,595,562,515,553,562,556,531,476,510,515,518,494,434,470,480,485,460,372,431,438,444,416,331,351,354,366,345,423,339,381,421,426,476,434,453,475,476,554,493,533,557,550,623,582,618,645,635,584,619,639,643,614,561,580,599,614,590,538,560,572,580,563,496,546,560,568,530,489,488,508,519,503,525,491,512,533,532,466,522,518,522,497,452,458,465,472,460,523,461,504,541,538,541,524,546,562,556,517,530,538,554,545,462,498,513,512,476,283,492,498,462,392,367,194,166,125,161,618,617,823,866,745,551,560,562,579,568,522,551,581,603,573,460,473,518,534,497,443,467,495,510,479,402,439,465,470,435,374,401,414,427,399,410,377,399,429,428,472,405,435,456,456,583,507,543,574,585,605,589,610,633,620,581,603,610,621,601,538,569,576,583,564,515,533,545,553,536,498,508,523,534,520,485,486,503,525,509,497,488,494,512,516,474,471,478,501,493,436,477,485,489,462,509,435,461,492,504,542,522,555,575,559,548,555,587,603,579,484,530,562,576,529,468,487,505,517,506,207,441,439,366,258,804,152,252,486,681,554,796,715,642,593,531,544,557,565,545,503,531,539,546,526,502,497,509,529,520,490,485,487,501,502,429,482,474,475,459,411,412,412,429,431,387,383,385,406,401,419,380,399,430,435,498,417,444,481,495,553,510,548,582,570,583,562,597,626,600,572,586,611,623,595,557,575,598,614,592,521,551,564,584,559,497,517,539,559,534,498,491,518,541,525,510,506,533,545,530,478,515,526,546,527,455,462,469,483,463,533,467,490,533,545,546,517,533,568,561,541,545,558,577,566,511,530,542,560,546,377,464,472,483,446,104,295,200,129,109,754,200,450,714,823,594,657,625,625,612,543,588,597,601,576,535,527,524,557,555,515,530,549,573,551,470,504,521,541,516,414,451,461,472,454,383,407,434,458,425,367,389,415,425,398,407,377,412,439,418,512,427,480,524,525,599,529,575,616,615,607,592,612,642,637,568,595,597,610,601,538,553,564,575,562,541,515,518,541,548,512,527,528,540,538,499,498,505,526,523,498,491,512,533,509,518,497,515,559,564,439,487,490,488,468,481,432,465,500,496,538,490,520,555,559,537,540,560,589,573,534,530,553,586,566,462,509,499,515,510,185,417,398,354,270,803,123,197,445,670,550,785,693,639,586,552,539,544,565,569,525,535,535,561,560,501,513,522,532,524,472,494,494,504,491,450,467,471,486,482,405,424,432,449,439,402,372,375,400,413,396,381,390,427,421,465,415,444,473,473,571,464,509,562,585,595,562,576,599,600,598,596,613,632,624,562,593,603,613,600,534,537,545,571,565,496,525,545,556,540,539,481,521,571,578,492,521,527,533,520,508,487,500,512,517,481,496,488,490,492,495,469,462,483,493,523,497,514,539,542,540,521,538,553,550,540,539,538,545,550,517,530,531,530,521,255,501,478,468,397,500,150,116,109,268,607,711,804,764,681,583,550,554,589,604,537,557,566,575,558,507,521,536,553,534,479,495,503,518,504,472,460,467,495,498,432,450,469,499,486,389,406,423,451,447,396,366,393,444,436,473,371,392,444,466,593,471,509,550,586,616,593,604,628,630,622,614,619,652,661,585,570,552,579,601,546,537,527,542,554,518,531,533,548,553,503,492,489,505,521,516,491,487,506,521,508,496,503,517,512,552,519,525,552,569,466,524,515,525,506,468,453,462,483,486,537,452,473,520,547,569,535,575,615,606,503,531,531,546,546,552,486,536,604,598,421,506,521,544,502,111,352,269,191,140,811,192,432,706,858,587,681,608,598,597,558,574,558,559,562,518,540,519,524,530,494,508,517,524,514,470,464,456,472,491,454,439,441,458,470,385,416,400,405,410,393,366,367,377,391,412,389,410,435,428,527,428,471,521,536,584,529,532,557,577,605,598,608,628,632,602,588,595,628,627,572,581,581,595,600,560,545,531,518,527,527,565,562,557,555,504,498,499,518,530,540,481,492,515,544,553,517,501,512,536,555,550,551,551,560,448,518,473,456,454,479,438,434,447,471,479,488,500,507,501,575,495,518,548,577,525,559,556,567,550,480,519,515,514,494,273,470,443,433,395,417,174,124,107,200,642,651,812,806,722,586,595,579,586,596,537,565,556,565,562,516,493,482,509,532,506,491,488,493,512,504,507,514,514,517,448,479,470,475,475,392,421,405,402,407,424,390,397,411,422,503,426,431,458,486,571,510,521,546,570,595,565,564,582,601,596,577,535,525,569,585,589,567,570,583,543,572,556,558,563,507,525,533,542,533,514,499,487,511,531,545,504,518,560,577,523,513,494,508,523,539,516,529,546,560,520,509,494,494,515,562,526,536,560,578,473,521,505,506,499,502,451,460,487,501,534,498,513,534,542,547,530,533,546,556,542,524,515,530,538,527,529,498,483,510,172,483,424,372,274,686,130,103,199,445,598,826,784,687,631,592,572,564,578,601,552,570,556,571,581,496,520,502,507,519,489,464,467,479,496,464,471,465,463,469,425,441,424,424,426,390,411,396,397,404,414,379,379,397,417,480,375,376,417,464,600,492,512,546,590,637,596,596,606,634,654,626,629,646,665,585,634,607,610,610,560,562,542,542,560,513,536,515,506,516,510,506,505,512,519,504,506,498,503,510,551,487,468,493,533,537,532,515,521,539,521,519,506,524,545,513,498,488,505,537,458,463,443,445,459,528,459,474,490,519,564,518,516,546,565,556,545,546,560,571,506,520,502,491,493,470,487,488,535,535,146,403,324,254,227,850,132,328,591,808,563,736,634,591,577,540,552,546,547,554,508,520,507,509,512,500,502,500,506,507,500,496,501,509,512,468,482,466,463,472,403,446,429,423,424,403,379,369,382,403,454,398,407,426,437,520,466,493,522,530,582,502,502,526,566,580,571,571,572,577,589,580,570,576,586,577,580,565,571,587,543,555,533,525,536,513,530,519,530,538,514,487,490,510,525,557,503,507,520,549,527,537,525,536,551,561,501,500,528,558,479,548,527,522,514,465,456,456,460,469,532,465,467,488,520,538,521,509,518,530,550,535,526,528,541,544,529,504,508,537,461,508,485,499,500,122,418,317,206,168,855,147,359,632,834,591,726,626,582,590,546,566,545,544,554,547,533,538,556,567,486,518,506,509,494,499,480,492,508,511,478,472,467,482,497,416,437,413,415,430,384,388,377,380,392,453,375,380,405,439,549,452,462,495,530,628,557,561,575,603,633,631,625,625,631,585,617,596,592,595,545,574,561,565,570,562,520,523,539,561,533,540,518,511,525,506,523,494,479,499,497,494,480,480,494,530,470,472,493,524,536,519,514,520,533,524,523,488,506,527,496,496,473,474,493,524,478,484,511,533,573,501,524,558,585,561,556,550,554,569,544,542,548,550,557,380,521,522,494,441,133,287,185,126,108,766,322,571,781,850,589,661,600,571,582,543,580,563,542,538,533,536,524,520,531,525,519,497,498,523,498,497,476,480,496,465,461,427,407,437,411,448,416,399,411,376,405,387,386,393,462,346,350,389,436,568,462,463,496,544,631,561,561,588,623,650,604,577,612,651,615,616,599,605,626,568,582,557,562,577,538,540,531,539,550,515,512,500,506,518,538,503,505,523,540,545,514,507,507,539,541,524,516,518,533,485,528,512,498,494,478,458,438,438,453,548,480,483,506,542,552,530,528,522,553,529,521,509,505,515,474,518,500,482,479,418,473,476,467,452,153,304,198,131,110,761,386,649,838,854,591,661,606,586,586,551,578,547,505,527,530,512,476,479,497,585,550,550,569,591,489,545,502,505,506,444,459,436,431,447,417,423,411,396,407,410,410,401,391,388,485,421,437,446,460,544,503,504,506,523,612,544,536,539,569,612,624,624,610,613,599,586,563,558,575,566,599,580,563,557,521,552,532,520,524,491,515,506,497,492,535,485,484,494,511,550,525,514,523,542,501,530,506,514,530,517,389,383,420,481,547,521,528,540,542,596,532,503,531,574,553,568,545,537,545,560,541,515,518,547,500,542,517,494,493,186,466,396,344,263,665,133,108,180,419,602,813,797,690,625,609,596,581,576,585,546,622,619,590,567,522,523,500,481,499,473,517,493,463,459,475,466,470,454,470,435,461,440,429,436,392,418,402,384,379,433,388,385,389,412,495,421,407,388,429,591,524,537,542,560,654,611,616,624,644,628,648,648,635,637,542,609,593,568,549,539,533,544,540,537,517,528,517,501,505,512,506,499,490,497,543,514,494,504,528,469,527,505,474,462,479,464,438,425,447,572,589,566,567,571,486,562,546,518,487,225,459,411,361,309,551,143,113,105,270,644,776,863,802,700,605,580,556,571,598,567,578,549,545,562,530,542,505,503,521,500,498,476,478,485,476,488,463,456,468,451,450,432,430,440,387,433,413,391,383,434,385,381,380,405,498,444,446,447,471,586,507,516,530,559,636,592,589,600,621,605,631,609,595,595,567,595,581,565,555,523,554,531,512,512,542,524,523,513,528,550,543,535,532,539,533,533,506,482,494,513,534,528,515,509,496,505,494,480,486,509,500,493,478,485,577,536,564,575,587,524,569,553,521,501,564,536,537,535,545,460,550,519,494,478,386,482,487,456,432,277,294,221,145,113,666,518,721,812,755,569,610,579,564,562,552,566,547,521,535,536,533,505,504,515,512,513,485,470,481,513,501,509,502,508,454,479,452,436,442,426,441,416,406,416,385,408,370,347,349,506,386,405,426,459,619,501,504,528,571,631,621,603,593,606,613,615,600,596,601,572,596,570,553,550,584,571,540,522,541,558,583,548,524,533,541,566,551,543,539,505,530,514,510,504,524,504,489,485,501,479,516,489,460,456,500,477,472,469,474,537,509,499,508,513,535,545,529,513,510,529,541,521,510,510,509,533,507,472,470,281,487,422,385,329,666,242,153,197,417,602,839,846,732,643,546,560,543,537,540,533,543,527,518,521,534,550,563,546,534,498,532,520,503,491,455,496,484,463,455,408,455,437,423,411,414,402,391,397,407,438,417,414,412,417,510,453,458,461,479,568,537,534,532,539,581,592,584,576,566,623,584,595,600,605,598,592,554,549,570,534,607,580,562,553,537,521,518,508,520,532,529,513,487,482,532,553,536,513,515,530,527,491,480,501,506,518,482,476,487,531,498,474,470,488,567,547,538,536,546,565,565,546,539,552,554,566,548,549,559,508,544,511,487,510,156,474,424,307,197,791,117,149,356,586,585,826,713,610,574,573,595,578,565,562,533,567,542,530,529,494,538,517,503,500,461,479,470,450,452,450,461,439,431,431,400,460,452,431,408,406,399,386,383,389,430,410,400,369,378,509,457,469,473,484,614,535,550,567,583,660,627,633,633,638,597,665,631,611,599,538,550,533,531,536,514,538,519,515,511,505,516,508,500,504,486,516,519,506,492,469,493,481,444,444,476,493,483,461,447,553,527,549,545,541,586,569,567,566,577,546,581,549,528,524,503,565,553,521,494,343,519,472,415,389,414,272,229,149,194,626,638,796,805,706,555,555,509,507,524,571,569,550,539,549,548,562,526,509,518,503,539,510,488,493,460,492,454,439,443,441,467,453,445,441,417,444,428,410,406,412,438,422,408,399,530,437,458,478,501,599,545,536,535,563,585,637,616,591,572,611,601,592,581,598,540,619,591,547,531,527,552,536,531,524,497,524,510,496,492,479,507,488,459,464,518,492,482,482,494,523,522,492,489,500,504,523,488,473,479,516,500,474,467,485,584,535,539,537,546,581,627,603,573,567,532,575,555,533,533,443,527,483,459,466,186,402,357,266,190,809,157,233,447,653,579,812,692,607,575,545,589,577,557,543,509,559,549,528,510,441,514,502,497,470,463,395,396,429,428,508,503,525,523,511,471,490,458,447,453,400,473,439,405,384,449,414,400,400,418,500,471,468,459,472,580,529,544,550,569,640,586,600,611,621,607,647,615,597,601,572,610,598,589,581,538,573,558,529,527,512,540,531,522,508,527,529,532,527,516,545,550,547,538,530,476,556,540,515,493,457,472,458,448,449,504,489,507,516,510,568,519,540,551,558,539,563,550,538,532,484,546,531,506,491,400,475,484,471,430,105,322,184,123,107,781,270,544,776,840,634,725,686,642,625,554,637,614,578,561,540,563,554,543,542,515,539,521,506,505,478,523,505,487,472,441,482,460,437,432,410,447,437,426,418,398,405,398,388,387,452,421,427,422,431,543,485,501,512,524,610,556,531,531,563,615,635,626,607,595,571,620,588,556,555,563,586,568,554,555,538,563,552,544,534,556,542,528,521,527,540,567,541,515,510,551,564,543,525,527,517,567,544,506,506,482,505,460,423,435,530,512,493,475,491,545,549,533,524,530,543,572,560,539,533,494,556,540,513,489,477,513,499,488,496,180,457,425,331,234,833,123,187,407,639,564,845,726,622,571,537,574,562,547,538,508,553,542,523,507,505,524,530,510,500,448,504,490,467,452,430,461,450,426,418,412,444,429,413,405,394,420,410,389,384,433,417,411,382,405,524,460,469,472,486,592,558,568,572,575,681,616,633,653,673,581,663,622,595,581,548,598,593,570,553,501,551,544,526,504,495,514,532,519,503,486,504,506,503,493,498,494,503,503,497,501,513,520,509,492,454,509,508,479,448,472,472,474,457,448,554,514,531,532,531,569,578,576,573,564,540,567,548,518,519,516,560,550,516,496,268,526,470,401,340,499,237,162,122,249,628,771,875,803,677,557,624,599,565,551,560,574,557,530,543,503,569,546,514,499,472,520,505,479,464,456,479,473,460,453,396,459,445,415,400,411,404,412,408,396,448,436,451,441,429,483,472,483,467,455,562,532,546,545,539,572,588,592,574,566,572,589,589,572,567,546,577,568,551,543,527,556,556,540,534,499,547,544,530,507,507,491,501,501,503,506,503,487,483,485,583,536,549,542,542,496,628,612,565,520,480,488,474,459,462,492,495,497,482,482,536,518,537,533,529,535,554,564,565,543,526,539,548,545,531,491,527,527,505,473,159,476,438,375,265,509,117,107,106,252,634,767,865,773,669,586,631,631,610,594,536,594,585,568,552,556,514,513,527,532,525,588,577,541,522,450,539,514,472,449,411,451,405,390,392,359,427,406,364,344,375,389,387,371,356,459,402,406,397,420,586,494,529,542,548,657,639,673,672,663,577,655,636,579,564,598,595,605,592,583,555,610,592,569,555,539,567,558,539,530,519,555,557,538,522,455,519,507,485,472,492,464,474,480,481,510,514,524,524,516,424,522,521,484,447,436,441,456,446,443,558,458,499,517,530,548,590,597,568,548,530,559,563,547,523,457,546,530,499,463,269,484,478,418,349,401,218,164,118,160,660,668,841,821,720,550,634,613,587,568,524,557,564,556,542,508,523,527,523,510,481,516,521,509,488,462,481,484,477,473,427,458,459,448,433,383,430,417,397,380,408,402,405,401,394,482,435,454,451,464,550,515,530,524,531,617,563,565,568,583,595,654,654,629,599,533,610,611,579,548,553,550,568,558,540,520,574,561,530,510,515,542,548,530,512,490,527,522,499,479,510,510,518,508,506,518,524,528,523,515,467,540,546,519,485,461,465,479,475,459,513,489,514,513,509,549,539,558,552,547,523,563,567,561,548,499,514,520,538,543,421,471,506,513,465,107,365,259,163,119,747,249,503,729,813,575,662,626,597,578,547,587,595,580,560,467,550,551,530,508,484,477,504,505,496,506,496,511,506,502,415,523,514,474,432,413,433,455,443,429,413,415,417,409,409,456,429,441,445,449,515,480,508,518,504,582,563,593,595,586,595,598,618,615,598,567,604,621,603,581,509,578,577,542,511,500,531,533,520,510,503,510,525,503,494,506,506,512,496,500,508,515,526,508,496,512,535,544,528,511,517,523,500,463,473,479,571,583,522,481,447,489,489,467,434,519,473,488,491,504,561,557,582,573,564,518,573,573,548,527,511,526,538,533,523,421,505,509,520,484,108,385,294,176,122,835,156,384,614,794,592,756,682,637,608,548,606,599,584,559,507,548,541,524,514,473,512,526,512,500,464,484,495,483,475,457,458,450,447,453,397,463,467,437,412,376,380,394,388,372,403,392,395,387,389,521,441,481,494,497,659,582,647,666,669,583,651,644,622,593,580,602,622,622,600,521,578,580,559,535,527,527,539,543,537,507,531,536,536,524,493,505,515,519,510,485,494,514,513,501,498,496,508,504,500,502,520,537,532,518,484,514,536,529,506,441,469,455,448,438,513,480,519,520,515,540,529,551,548,537,486,555,564,539,502,518,513,545,537,518,441,518,501,495,472,111,420,354,218,135,838,110,307,539,746,555,786,687,599,555,521,579,581,551,516,506,553,577,558,526,505,502,517,515,506,472,522,533,526,505,456,471,482,478,463,385,454,458,443,407,409,400,422,422,417,445,418,445,442,437,468,464,490,457,449,561,507,545,549,543,583,586,598,597,587,595,584,581,592,597,535,592,594,581,558,552,530,530,545,550,514,555,564,550,525,544,507,504,505,512,488,572,580,553,511,522,491,516,528,525,522,516,514,512,518,473,524,533,527,506,441,467,468,468,453,482,447,467,482,487,525,496,534,559,553,512,510,525,546,543,528,511,535,550,544,504,512,495,499,514,141,479,433,289,204,820,138,324,549,740,568,757,672,611,577,545,580,585,566,546,462,556,568,540,505,489,493,543,529,492,480,505,527,510,483,449,490,500,482,454,413,453,461,453,431,395,400,415,419,405,422,402,432,441,432,524,455,503,524,529,583,527,547,566,576,575,576,585,569,555,511,589,595,568,537,459,511,510,495,475,472,481,505,516,487,488,476,488,493,485,482,503,520,514,493,537,517,547,546,540,524,552,568,559,537,433,519,511,470,445,490,451,472,472,466,588,517,555,580,587,533,602,615,588,554,512,536,551,554,533,482,513,536,521,488,169,463,424,374,274,514,120,106,106,281,611,731,832,773,675,567,583,588,596,584,533,557,564,568,550,499,532,550,540,523,483,488,505,507,493,431,505,515,494,449,385,448,471,448,405,350,385,383,365,360,429,374,415,442,429,479,453,480,478,468,559,512,546,551,542,589,597,631,616,594,588,602,625,622,595,558,602,607,596,572,535,564,579,568,550,512,527,544,545,527,498,515,527,526,510,501,497,516,517,503,490,507,528,533,515,457,493,499,479,445,514,519,583,594,562,440,474,450,426,434,508,448,474,494,498,543,527,546,548,545,532,548,568,559,540,516,544,554,529,515,451,532,530,497,465,171,419,389,325,226,821,130,167,380,614,577,889,855,742,640,542,560,567,560,545,473,531,527,513,488,476,473,477,483,479,465,480,477,491,488,442,455,462,473,466,411,429,430,434,429,372,396,399,399,390,440,376,408,435,447,509,447,468,492,500,564,525,563,568,555,607,580,597,611,612,583,613,632,624,601,551,585,600,595,567,450,559,579,559,494,528,475,525,533,527,506,534,545,536,513,506,524,550,529,500,512,533,553,537,517,467,518,538,524,493,425,460,458,433,430,522,423,449,477,505,544,530,551,556,548,537,545,553,563,556,539,525,542,556,546,503,539,535,510,509,176,485,468,401,269,666,126,108,246,453,543,782,746,637,568,547,547,559,570,559,514,544,553,552,533,500,522,542,546,530,474,502,524,524,494,446,433,408,428,433,413,450,451,440,423,435,430,471,495,479,452,418,428,435,444,504,457,467,476,493,583,526,563,587,589,612,584,598,607,610,575,594,592,601,591,545,562,566,576,565,511,536,538,544,530,489,503,511,512,505,466,489,508,518,493,490,476,506,533,513,510,505,531,541,523,484,510,527,532,503,461,485,502,504,483,542,441,445,493,527,539,553,562,538,525,533,574,604,599,563,548,543,574,576,556,436,547,526,501,475,116,397,378,272,156,825,105,152,387,635,612,841,750,680,637,561,600,603,615,589,529,565,574,564,551,487,512,520,527,505,458,484,498,506,479,434,456,466,464,442,397,438,455,454,435,341,373,384,383,356,429,343,376,402,414,510,452,488,512,514,563,524,557,572,565,525,565,576,550,520,598,545,623,639,612,602,600,624,638,630,572,583,590,593,583,516,564,564,559,545,502,499,511,521,520,489,484,487,495,492,518,506,527,536,525,453,506,502,486,467,479,444,450,466,472,534,485,511,530,535,533,533,547,559,548,529,526,539,546,532,475,526,535,529,486,263,482,450,429,383,480,173,131,110,231,600,739,867,834,700,554,560,568,577,568,509,550,571,570,540,484,491,484,503,500,496,505,544,549,522,439,505,526,514,472,413,454,485,485,450,362,399,405,402,378,390,366,386,398,391,503,410,444,479,493,572,516,530,556,568,594,569,582,607,605,601,587,595,610,606,554,598,597,597,580,525,543,555,574,556,474,509,521,520,494,479,460,470,481,487,481,469,477,495,496,491,479,495,512,507,472,482,493,504,493,473,462,472,493,488,484,466,464,477,452,559,533,575,593,575,616,562,586,600,600,495,611,596,577,522,255,484,449,421,367,482,183,146,115,247,599,696,823,786,678,554,563,554,567,567,522,539,543,550,539,477,518,511,502,473,458,495,506,500,477,499,465,498,519,512,434,465,470,469,450,397,426,439,429,407,433,394,426,443,439,489,440,463,477,481,579,509,546,577,585,562,586,613,620,597,577,540,580,615,605,536,577,593,597,565,523,537,556,558,540,526,519,531,550,540,495,515,522,531,510,527,504,524,533,528,475,539,529,523,505,433,460,463,471,457,529,431,450,483,509,546,524,526,587,585,536,520,518,537,536,513,526,542,556,535,458,493,480,504,500,117,414,377,282,161,791,106,176,431,663,615,757,672,634,619,600,616,638,645,620,542,586,583,588,572,504,536,539,543,516,485,498,512,523,503,378,476,472,455,417,465,370,392,430,456,432,458,442,429,431,461,423,435,456,459,540,469,485,514,530,601,548,562,587,597,591,593,590,606,614,564,579,576,589,580,533,547,549,555,553,510,520,522,548,540,517,496,510,529,529,509,506,513,522,529,514,502,514,537,527,471,506,515,524,504,461,465,479,486,473,522,454,478,533,531,546,542,577,605,582,530,543,563,568,548,487,538,566,583,548,335,478,497,475,420,184,219,139,111,105,694,410,657,831,810,609,619,599,606,605,550,588,576,567,554,516,542,536,545,540,495,506,507,519,514,497,483,487,510,510,385,491,476,461,420,357,374,381,389,377,392,353,365,381,387,453,395,424,451,461,588,461,471,525,571,599,612,646,665,639,598,572,599,628,605,573,606,612,615,594,550,569,585,589,575,529,537,535,541,533,516,527,529,544,531,519,513,522,543,535,484,507,503,505,495,459,466,458,462,463,527,453,468,510,520,558,532,549,569,572,494,547,542,543,529,529,484,514,554,553,441,499,502,540,511,129,383,305,250,196,815,212,471,734,866,539,690,612,579,556,534,538,557,578,564,467,528,548,560,516,508,477,517,550,539,463,490,510,529,494,423,459,465,475,450,393,416,435,445,422,410,387,396,415,415,477,416,428,450,477,549,487,510,541,555,614,564,583,618,650,577,598,609,625,609,563,555,549,570,577,561,546,547,562,565,507,550,544,540,532,460,492,493,500,485,473,448,463,488,490,482,472,494,509,500,408,480,482,476,448,524,405,443,485,508,561,539,554,576,570,552,561,588,608,593,566,539,544,569,579,485,553,545,530,509,189,447,412,373,272,697,169,144,261,498,584,838,822,717,636,553,577,579,585,575,520,530,533,547,544,494,503,502,510,506,474,481,476,482,483,445,470,479,479,470,397,425,423,447,430,400,377,383,408,410,430,387,397,429,442,491,429,454,491,498,579,506,549,587,590,630,584,609,646,648,590,621,631,652,637,476,568,577,590,558,545,459,530,586,579,563,539,562,588,588,513,518,508,519,521,522,503,514,530,532,476,508,494,485,477,426,460,454,458,446,534,415,453,512,543,586,506,511,550,577,553,584,589,597,580,499,527,524,541,533,402,473,479,509,465,107,340,243,161,118,760,161,380,644,804,595,654,611,606,609,568,581,577,595,594,540,548,548,561,559,437,527,524,529,496,503,448,484,498,513,520,444,467,519,532,408,509,500,481,446,422,367,355,374,409,460,425,455,478,475,546,444,452,480,513,619,562,569,592,616,603,596,592,602,608,556,578,558,565,571,551,534,526,544,556,530,528,509,521,530,502,519,525,545,536,494,485,512,535,518,511,467,465,501,519,492,506,510,518,513,467,476,473,481,480,534,473,503,541,557,419,520,527,550,528,568,462,529,587,597,521,555,564,576,556,483,516,540,593,583,149,405,346,276,225,791,114,263,501,714,576,712,631,600,595,545,554,544,542,543,527,538,537,551,560,506,499,494,504,518,485,492,489,505,510,460,463,461,478,484,384,447,433,439,430,404,355,363,391,405,558,429,446,490,538,615,570,592,619,625,549,601,608,617,603,603,531,555,583,596,568,598,609,621,604,508,533,516,520,510,482,506,493,501,501,513,452,452,471,499,510,521,514,522,526,465,482,453,460,470,509,451,439,457,491,561,509,517,538,565,546,557,550,556,554,538,527,539,559,557,505,506,487,490,525,143,438,375,317,222,599,862,792,712,652,407,574,565,583,559,501,581,571,581,544,537,476,504,562,573,447,494,478,482,474,414,434,436,445,440,373,384,378,382,381,443,375,385,406,436,549,449,453,472,516,598,551,557,576,594,615,595,609,631,640,603,595,593,612,621,553,575,566,577,570,511,536,535,535,535,485,478,453,469,491,512,473,472,489,507,521,493,489,507,522,508,511,503,518,527,568,480,436,470,533,536,557,543,550,556,525,521,521,529,532,483,511,496,497,495,545,481,489,500,524,531,549,533,539,539,514,517,506,507,512,481,517,512,510,508,342,474,463,430,403,224,236,142,113,104,703,461,673,811,800,572,639,592,586,584,560,555,552,564,573,530,534,522,525,539,504,506,492,518,529,481,487,479,490,493,436,461,456,469,465,375,410,402,408,404,424,325,299,357,419,509,419,429,456,494,597,501,517,571,607,601,581,584,610,625,589,587,594,613,619,577,566,559,579,593,572,560,554,570,587,542,552,528,540,560,526,531,525,527,534,511,504,498,501,513,517,501,487,498,518,512,498,486,490,512,521,504,498,508,526,456,494,467,470,479,512,438,448,477,509,507,496,488,498,512,515,496,509,530,530,541,507,512,532,553,511,524,512,506,525,205,447,369,322,271,661,152,129,280,484,592,796,787,707,652,602,549,549,589,607,550,609,615,587,570,617,522,504,500,530,535,679,654,601,577,390,477,455,472,455,349,332,315,328,338,386,353,350,364,385,437,404,408,417,436,532,438,443,456,497,581,551,560,571,590,603,575,570,589,604,592,586,580,592,609,579,563,556,567,589,528,559,540,544,547,503,505,490,496,512,502,488,493,503,516,425,475,459,476,456,572,450,493,543,575,511,583,596,578,544,521,476,486,508,528,477,496,487,494,496,524,455,457,496,529,536,505,497,506,526,539,524,524,548,555,536,527,514,519,528,503,533,525,525,524,356,502,504,484,453,303,230,140,111,117,669,526,701,797,758,570,619,586,585,590,546,540,529,533,552,541,528,518,526,547,494,505,488,493,508,497,463,430,461,501,461,473,449,442,454,405,430,394,375,392,457,418,430,437,458,488,454,446,459,480,559,491,507,540,561,614,548,548,576,610,606,603,602,602,613,582,590,578,573,589,548,568,554,549,550,527,535,519,513,527,521,518,514,514,529,508,504,491,503,522,501,461,434,465,496,549,493,478,499,536,589,539,550,569,589,530,564,545,547,555,448,489,472,459,459,483,439,440,451,469,571,483,489,518,559,567,562,559,573,586,530,537,524,539,549,471,504,497,479,473,225,444,410,380,318,654,144,113,186,438,645,795,807,723,678,576,589,551,543,566,541,560,550,555,572,519,512,496,506,525,504,501,482,483,497,470,488,462,464,475,411,441,423,416,421,405,386,383,396,409,408,393,384,385,398,476,412,420,434,461,598,470,483,535,587,623,595,597,619,638,599,592,583,610,622,563,565,553,566,579,586,544,547,564,581,553,576,559,554,561,521,539,526,524,530,506,505,491,494,506,521,492,488,504,518,547,509,500,504,534,535,533,522,518,534,464,523,507,489,486,433,446,435,434,449,527,427,450,486,527,543,510,497,506,533,575,543,553,553,572,532,554,536,541,552,427,490,492,493,471,172,346,249,212,155,751,373,622,819,871,553,617,554,544,558,541,533,526,534,549,516,524,500,502,518,493,498,485,485,502,476,474,466,472,484,484,469,469,468,482,417,442,390,395,423,441,388,380,389,421,531,454,461,476,503,606,532,528,542,578,565,599,575,556,571,577,557,562,575,579,591,567,563,566,586,538,571,549,544,550,481,511,502,501,504,491,456,440,467,501,500,461,443,450,485,497,490,488,500,510,541,480,494,524,548,525,518,511,526,537,504,515,522,518,514,508,489,479,479,498,553,503,509,533,555,556,553,561,565,555,505,565,555,526,505,498,498,498,519,530,412,484,502,497,458,221,316,236,195,146,724,419,624,790,817,524,614,560,548,535,558,504,488,509,555,515,532,524,524,535,466,477,471,489,495,514,433,444,496,526,461,486,474,471,476,425,440,429,432,436,453,412,411,428,457,498,418,411,443,487,590,494,505,541,578,616,581,574,599,624,627,585,556,566,611,548,609,592,577,568,557,527,531,548,567,560,540,518,516,545,505,532,505,493,497,538,503,500,505,529,500,526,512,518,524,549,487,477,492,534,521,540,522,525,539,474,469,456,460,471,546,462,458,490,525,565,537,527,539,570,538,536,506,500,522,538,518,504,508,529,459,511,475,479,489,182,396,331,260,227,847,141,306,574,785,586,743,636,581,570,605,591,588,580,601,538,580,546,533,537,493,518,497,487,491,467,486,479,484,490,459,446,440,444,450,425,459,438,416,417,414,402,376,379,396,465,421,417,426,450,556,462,462,490,531,586,555,550,563,583,619,565,554,582,616,581,600,574,572,583,574,545,515,535,576,561,554,543,545,564,525,536,525,526,531,560,510,514,531,562,540,532,512,525,542,540,532,536,531,542,468,516,502,502,500,529,417,408,450,510,563,515,515,530,552,570,555,542,539,558,545,568,550,544,545,516,527,514,528,536,413,494,483,461,443,213,314,224,186,128,733,433,665,839,844,473,500,480,478,481,478,458,450,455,468,409,452,431,424,431,445,387,397,411,433,473,429,419,429,456,539,470,467,487,523,554,538,530,535,550,610,564,588,613,617,622,613,611,607,616,553,596,568,552,550,550,547,531,532,550,521,530,509,499,508,516,528,531,517,512,512,497,477,472,488,528,510,489,482,506,519,532,532,525,530,450,487,449,453,447,541,455,457,482,522,555,545,537,539,548,570,544,536,546,567,560,553,533,530,556,443,513,476,480,474,172,382,302,249,234,844,251,467,688,849,568,721,620,579,576,594,571,616,641,625,478,546,498,475,482,491,457,445,457,481,488,469,442,447,478,439,503,481,449,438,427,429,413,401,408,464,427,417,412,435,506,459,450,454,482,584,514,509,525,553,592,585,571,569,583,594,578,571,574,584,553,576,549,529,542,540,533,514,508,524,510,520,497,491,503,487,493,479,487,495,553,473,479,502,533,534,534,504,485,503,475,530,499,480,478,556,464,445,455,506,560,562,545,535,547,566,554,549,553,559,566,550,527,522,535,470,560,543,514,492,390,459,466,439,403,280,317,245,210,171,695,505,686,788,774,566,619,569,542,553,556,562,536,522,527,501,543,522,497,489,499,511,477,462,467,508,507,501,507,513,441,482,438,389,413,442,435,411,408,429,481,427,413,430,459,497,474,458,462,486,602,500,509,532,568,620,583,574,588,614,588,603,599,601,593,602,557,535,540,580,529,588,544,511,507,512,532,518,501,506,530,503,481,473,500,551,536,508,501,529,486,538,522,512,503,485,470,458,453,465,533,486,479,490,518,570,525,516,531,550,540,567,553,534,526,518,547,532,524,521,459,485,476,481,471,147,391,282,209,164,739,293,502,698,796,591,634,565,552,577,557,569,550,546,550,546,533,497,495,518,509,524,493,484,497,472,483,464,455,458,500,464,456,454,474,453,479,444,446,454,444,433,414,407,419,508,445,441,445,476,573,514,507,499,528,605,574,554,562,594,589,598,592,589,589,556,581,564,537,539,524,550,524,507,520,505,514,466,446,472,539,503,501,506,526,545,528,499,496,517,505,541,523,506,511,499,473,457,451,469,578,489,482,497,530,598,573,549,551,572,586,572,545,547,557,520,566,524,499,502,471,504,492,502,491,105,405,271,158,116,822,159,368,590,794,596,725,648,610,598,577,581,557,544,558,559,571,553,552,560,530,545,522,509,517,499,521,503,481,485,441,483,461,437,439,402,428,401,382,387,414,391,370,362,385,476,428,423,428,447,556,490,482,476,513,601,576,576,578,589,633,603,600,612,631,598,572,557,572,593,585,580,554,555,572,568,580,561,552,559,530,552,524,501,505,538,535,525,519,521,469,533,509,482,469,486,468,470,466,469,540,497,506,511,517,568,556,557,554,553,537,566,550,527,530,500,533,521,511,501,479,513,526,514,499,212,379,270,198,130,727,429,669,834,827,518,616,538,500,506,505,508,495,486,485,526,526,527,509,504,539,534,530,525,531,505,521,483,473,489,450,487,449,437,437,422,438,420,405,404,442,417,386,380,406,522,452,455,466,490,633,530,535,574,611,609,631,605,594,595,571,609,590,566,562,571,572,563,561,560,539,575,553,534,527,516,533,517,511,514,510,515,486,476,486,506,515,504,501,501,459,508,494,466,451,492,464,447,442,458,544,504,506,508,520,577,556,547,548,558,544,571,544,523,520,542,553,528,513,513,331,535,487,455,407,516,252,186,125,247,651,750,871,837,727,546,601,563,542,540,536,538,526,511,516,496,534,512,499,493,485,499,481,463,464,469,491,483,462,452,441,467,456,438,435,409,440,430,410,401,449,414,413,409,422,536,464,473,475,499,595,563,568,565,577,601,587,575,573,582,563,613,584,575,559,546,567,560,543,539,510,537,510,494,496,518,493,476,434,458,565,536,529,527,544,550,571,542,526,541,487,527,483,457,463,491,484,455,440,458,561,519,520,520,534,572,566,557,558,562,566,568,535,528,547,512,568,549,501,486,148,505,455,375,250,593,115,105,163,362,626,784,791,690,631,605,625,608,589,589,539,606,579,553,542,515,533,510,503,498,484,522,499,479,474,460,484,468,446,444,423,456,430,411,413,404,411,369,325,347,476,430,421,407,429,555,500,488,477,502,637,583,573,577,607,614,642,624,611,607,579,614,587,566,563,559,577,561,552,552,532,556,535,515,518,516,539,529,510,502,546,519,510,500,515,501,554,530,504,497,460,495,472,449,440,546,479,474,482,512,575,555,531,512,536,545,594,570,546,544,539,551,543,533,533,470,501,489,500,494,193,432,351,279,253,830,252,438,609,794,570,737,627,556,550,548,575,555,529,530,512,548,518,495,493,507,514,493,479,485,479,505,482,466,464,425,485,470,445,432,423,417,405,399,410,448,435,432,424,433,537,462,466,471,497,563,551,547,542,546,601,586,589,579,582,589,611,592,575,566,542,596,574,552,539,512,542,524,503,495,494,517,496,479,472,500,502,482,469,480,527,488,480,483,503,504,536,509,482,485,520,505,481,469,487,540,541,531,515,510,568,564,563,556,555,549,568,548,542,545,496,550,536,513,491,357,523,517,469,427,438,281,237,172,224,617,644,795,810,714,542,574,543,525,522,503,550,536,503,488,522,528,520,505,508,481,531,513,483,464,503,479,460,464,481,442,504,459,415,417,415,438,408,392,399,445,421,412,401,418,536,449,425,444,484,612,566,549,538,555,615,642,632,597,584,599,640,631,602,592,566,600,569,545,546,530,564,528,509,512,506,525,504,483,492,516,521,511,497,494,486,540,529,511,493,467,492,476,462,455,510,482,481,464,473,553,534,539,531,530,570,573,576,563,552,540,579,562,548,534,472,538,487,479,495,118,441,357,234,155,816,105,247,466,693,573,780,675,604,571,542,593,586,561,542,551,556,563,549,544,497,543,517,464,452,452,518,509,485,445,485,479,486,485,479,431,502,496,470,443,428,423,408,394,402,501,458,456,449,467,538,538,543,530,519,572,561,568,565,564,589,579,594,591,577,565,592,584,569,561,489,568,549,512,480,516,518,516,506,509,526,523,508,503,513,518,535,500,479,496,522,545,533,517,507,489,537,483,447,450,531,515,502,481,483,577,561,553,544,553,580,594,588,568,562,543,589,566,534,534,468,534,485,470,476,110,437,334,206,129,841,107,270,495,722,600,791,687,618,586,548,628,613,580,549,521,564,558,532,516,516,539,531,503,497,461,512,506,504,464,431,488,477,453,432,387,453,435,407,393,415,383,365,365,387,443,440,417,404,405,535,470,476,475,491,597,576,578,565,574,606,621,614,593,588,555,616,592,553,536,534,571,567,546,529,537,529,521,514,520,596,554,545,544,564,519,601,560,516,497,513,548,535,514,506,450,513,498,468,447,491,472,482,475,477,535,524,532,531,527,538,543,548,542,534,524,550,553,545,524,496,538,513,479,477,209,487,448,368,248,755,166,142,299,527,565,849,760,641,574,546,585,576,548,539,503,555,535,512,489,512,529,520,500,488,500,536,527,508,492,474,508,497,481,474,398,466,443,415,399,426,394,359,346,380,487,462,461,452,459,571,520,531,526,538,604,592,589,577,580,579,618,600,580,569,592,579,562,555,573,549,600,589,565,557,521,544,525,509,509,515,539,537,519,509,492,532,524,507,498,488,509,505,490,480,445,501,492,459,441,481,470,467,455,450,538,524,529,514,517,550,560,551,525,523,496,559,546,523,496,503,518,500,474,491,216,478,429,347,246,815,182,186,376,613,582,881,782,655,590,550,591,574,548,538,492,557,530,491,470,498,527,523,500,491,487,512,508,501,491,463,495,479,455,448,407,476,457,426,404,398,420,413,399,392,458,418,440,445,443,553,491,507,512,528,587,579,592,584,577,576,602,603,583,571,552,593,584,563,545,542,568,549,531,534,495,536,501,463,456,505,530,528,522,507,524,529,521,512,522,519,543,539,524,518,508,529,524,509,503,489,513,484,457,458,530,514,506,493,509,555,550,545,532,537,542,566,547,520,521,506,559,547,528,511,429,491,482,470,446,129,378,274,184,137,731,302,536,716,791,551,663,619,578,549,565,575,578,559,551,523,582,563,537,519,489,539,527,506,499,447,511,496,461,442,407,460,457,431,413,387,421,416,396,375,390,394,378,361,362,483,435,453,450,456,599,529,553,557,566,610,634,631,603,596,577,637,628,597,580,549,588,578,557,545,557,557,547,543,550,544,577,574,553,537,510,555,539,514,506,494,522,518,503,504,519,514,516,511,503,497,538,545,538,514,458,492,487,472,456,487,470,482,477,472,531,524,540,533,527,520,547,556,548,530,536,528,535,533,530,460,556,543,500,476,114,417,357,245,147,799,105,131,328,573,568,867,782,693,620,586,585,599,590,582,561,604,604,580,562,504,577,556,523,502,462,523,505,471,453,435,475,466,441,430,380,447,430,405,386,372,389,383,372,363,456,403,419,426,441,501,471,480,486,484,593,543,580,595,591,600,610,625,615,591,574,622,624,602,583,558,575,564,556,551,511,570,564,551,521,513,534,538,532,518,493,514,503,480,476,487,525,526,496,486,506,503,520,509,505,522,500,502,504,509,484,536,520,487,477,513,504,489,470,486,541,542,533,516,512,587,594,598,580,583,501,585,563,525,503,438,511,502,493,477,176,416,376,285,239,828,182,375,594,769,519,772,665,577,527,498,542,550,534,512,494,503,515,514,506,490,499,520,509,494,468,498,499,476,461,410,488,480,463,437,402,427,433,407,392,420,395,400,402,398,464,456,436,402,433,575,503,519,527,544,608,625,626,606,599,591,630,629,604,588,570,616,612,583,565,536,583,572,551,535,491,548,533,497,482,486,520,527,502,480,503,509,524,510,496,496,525,545,519,502,482,505,515,502,486,449,487,482,461,440,516,458,474,474,482,526,559,556,522,511,538,548,553,551,541,502,553,558,539,517,449,511,497,481,469,144,439,405,301,198,792,113,195,413,632,583,816,737,656,598,570,580,581,565,553,509,598,584,549,522,497,518,517,495,480,504,529,541,538,521,426,511,505,467,438,393,426,423,414,397,405,395,394,387,391,458,429,440,447,454,534,480,512,515,519,577,562,582,581,576,519,554,576,567,526,486,544,534,516,495,508,498,509,494,486,497,525,519,513,491,534,530,535,521,518,497,559,559,534,501,487,505,492,469,465,522,517,518,500,500,527,556,552,527,520,524,557,567,543,522,503,542,544,522,505,462,502,501,501,484,109,438,340,205,131,807,119,312,547,743,576,743,671,623,592,527,586,596,576,547,512,537,539,529,510,523,534,534,528,527,466,522,539,520,486,408,459,454,437,414,370,417,429,403,375,381,373,382,374,371,432,423,454,450,435,548,468,489,491,510,586,588,612,597,583,633,591,601,611,610,610,654,657,640,616,514,617,607,574,536,537,510,523,536,542,502,544,547,526,504,496,512,519,504,495,483,503,519,518,499,478,492,509,506,488,460,490,505,495,475,469,478,499,494,483,524,492,529,541,535,532,535,553,546,530,331,507,506,445,389,358,248,229,170,166,594,598,802,825,684,562,582,588,585,556,523,594,601,561,526,501,543,547,521,493,472,520,523,497,474,442,485,487,467,449,413,454,465,439,421,401,409,422,432,417,447,411,434,432,434,502,483,509,505,498,564,526,544,536,542,580,601,618,610,593,587,585,598,599,599,536,597,609,578,546,487,550,549,527,506,456,491,502,490,464,488,470,500,498,490,468,508,519,510,474,494,522,568,550,504,491,517,542,537,514,459,494,498,475,454,518,492,512,518,520,512,526,534,516,504,560,554,582,591,577,530,569,582,559,538,469,531,533,522,493,295,491,493,464,408,339,196,138,112,136,594,571,766,795,684,564,572,580,570,565,549,571,572,556,550,529,546,551,553,537,506,538,539,519,502,459,517,520,502,472,385,455,450,430,407,396,387,412,400,392,412,420,429,426,406,509,440,467,488,485,571,542,570,564,557,594,611,627,613,598,570,613,625,603,572,544,581,594,575,552,530,549,564,561,538,528,533,542,556,550,503,527,526,518,505,503,513,525,521,513,514,504,519,521,512,506,542,554,547,523,434,525,527,489,445,412,444,444,437,417,542,438,472,507,526,609,547,558,582,601,595,624,642,629,609,398,590,576,504,430,213,367,362,346,283,656,169,124,185,411,642,837,864,758,672,543,635,625,593,562,493,545,553,532,508,488,501,501,477,464,462,516,526,517,483,431,460,470,480,459,390,423,435,438,413,375,392,396,391,379,414,385,412,421,414,505,440,479,494,505,573,529,564,578,571,581,592,618,620,602,578,585,586,573,575,542,585,601,581,559,532,535,549,556,535,535,552,574,567,544,518,542,544,522,505,524,542,559,549,528,528,539,544,531,520,489,553,565,539,504,441,486,484,469,448,501,459,477,483,488,536,519,533,543,547,512,546,573,566,541,521,506,515,525,537,429,504,484,473,467,241,406,393,324,270,824,195,316,527,713,523,793,690,610,552,509,524,542,545,526,500,516,526,526,510,489,523,546,540,509,411,474,476,467,430,413,424,444,438,424,387,423,434,420,397,388,397,415,418,406,451,388,432,447,448,512,482,521,529,509,588,556,609,616,598,621,590,603,601,604,582,645,656,628,595,513,584,586,563,527,521,519,538,545,528,492,520,528,521,506,494,490,524,540,522,514,480,479,491,502,492,517,525,521,510,452,481,482,478,464,498,451,472,493,493,522,525,562,555,534,531,531,546,545,533,511,563,605,591,551,485,510,503,489,488,202,472,447,381,261,796,135,155,362,583,532,868,786,647,553,526,561,591,567,525,515,558,583,565,530,470,531,555,530,485,452,493,518,496,466,422,450,475,467,440,416,439,451,437,421,418,418,427,421,411,479,423,448,467,471,536,506,540,553,550,577,547,569,580,581,578,582,615,617,596,541,587,603,592,568,485,538,553,536,492,496,497,510,509,503,466,496,503,497,481,474,469,504,511,488,519,491,525,530,518,507,547,570,564,527,380,517,530,488,430,530,367,482,565,553,548,559,580,571,553,552,560,603,593,558,517,576,597,588,546,464,513,493,467,471,161,424,399,319,206,788,120,161,392,619,574,816,731,645,602,528,565,577,572,553,500,518,527,535,521,476,484,501,510,495,468,474,493,512,499,447,446,459,485,467,380,449,458,432,399,385,394,412,393,381,443,403,438,448,432,523,466,502,523,516,574,556,594,595,564,592,592,620,612,596,582,614,640,629,601,545,577,600,594,557,506,533,528,521,507,500,512,536,533,506,499,509,534,533,515,511,502,521,529,534,453,497,495,482,470,459,459,476,476,460,517,489,523,542,530,520,528,553,565,541,548,528,572,592,576,467,542,548,517,479,301,476,476,457,395,485,254,206,159,288,547,687,780,715,608,549,529,544,563,560,537,543,580,581,555,456,550,566,538,484,484,498,548,541,504,460,494,512,495,470,402,456,477,467,438,396,396,409,420,408,435,399,412,419,429,528,451,475,501,514,616,546,572,595,603,577,609,606,606,592,560,569,571,590,584,536,539,547,564,564,514,518,527,533,531,487,494,507,514,502,476,481,492,494,475,485,495,522,536,513,483,490,514,520,511,464,473,480,479,472,522,479,528,560,544,571,478,495,546,551,555,589,592,589,559,476,574,578,561,525,361,466,489,465,419,232,272,223,182,123,676,465,695,831,791,554,608,593,584,565,564,570,596,602,583,486,522,521,527,504,476,486,495,500,488,454,467,485,487,472,417,440,448,448,434,384,417,431,414,395,394,383,396,419,402,460,402,428,450,454,550,479,511,544,555,594,562,574,593,596,572,605,627,626,598,542,553,532,552,555,550,537,541,551,545,591,567,588,587,578,506,595,583,556,517,484,514,531,532,505,474,489,531,543,509,477,453,461,480,482,509,475,513,535,518,522,524,551,561,545,508,513,527,539,521,437,504,523,527,494,348,441,491,495,450,275,233,173,132,128,680,509,755,873,818,545,617,620,608,579,549,527,544,550,541,513,559,559,546,525,490,526,550,551,513,434,492,507,505,471,408,407,382,405,409,482,421,445,471,484,436,478,473,459,432,516,466,511,531,521,539,539,559,563,550,565,524,549,574,568,578,569,589,592,588,591,572,589,600,597,521,562,556,548,528,490,505,512,525,512,495,485,497,506,505,503,475,485,515,519,470,486,483,499,489,448,456,458,472,468,514,445,473,519,525,545,517,538,558,553,520,550,565,574,546,439,521,538,546,497,445,428,468,517,485,228,410,378,351,279,758,378,621,797,853,542,669,633,606,568,514,542,558,545,520,478,524,529,516,485,463,495,515,511,487,451,450,457,461,467,428,437,446,459,451,384,410,406,410,405,399,383,402,417,408,490,418,458,492,495,580,503,536,570,573,583,589,608,613,604,573,575,602,614,592,557,586,605,607,585,530,559,566,571,559,494,525,528,526,513,491,497,520,523,501,497,497,524,533,512,452,501,527,529,497,465,435,480,504,493,460,464,481,477,464,576,464,504,563,589,534,561,569,583,560,521,520,520,528,520,474,542,547,541,520,382,442,464,452,419,133,289,201,143,113,702,338,567,775,810,586,622,609,612,604,552,575,581,588,584,531,542,557,570,559,473,500,496,500,493,447,459,461,480,461,413,446,469,467,445,367,411,426,430,390,442,390,439,484,479,485,431,441,468,481,543,521,556,573,557,616,583,631,660,645,589,608,623,640,619,556,585,588,593,573,500,549,547,543,525,518,494,512,533,532,502,510,516,529,517,511,496,496,507,511,522,496,504,531,530,507,529,537,550,532,467,484,503,513,488,469,445,451,461,463,493,495,519,528,520,566,490,527,567,576,547,562,563,580,569,479,540,536,518,480,196,448,403,364,294,557,609,612,608,585,519,550,552,561,542,491,510,524,534,512,485,482,486,504,498,443,472,494,499,470,425,431,450,460,454,405,404,404,414,411,450,400,411,437,449,519,456,476,501,516,569,529,558,588,584,584,571,592,608,598,537,580,597,591,564,516,517,527,545,533,510,511,528,539,528,512,501,506,516,514,495,505,513,531,517,489,491,499,509,505,481,463,490,525,512,497,493,516,516,498,491,519,530,507,482,507,516,541,540,517,538,525,553,565,553,532,537,548,554,543,513,528,542,558,535,475,500,495,494,469,206,462,439,411,321,591,170,138,170,367,589,775,846,768,662,554,549,549,576,576,497,535,530,542,526,485,495,516,532,517,480,468,482,500,502,446,467,470,489,473,422,432,426,436,431,342,419,427,438,406,464,349,407,464,485,525,469,498,534,531,575,545,577,611,599,576,577,604,625,598,558,580,598,611,586,528,548,553,562,546,542,518,527,549,563,497,522,528,544,527,480,486,493,508,498,501,467,488,516,516,524,495,506,531,536,511,518,518,531,521,431,486,467,466,446,484,437,455,492,503,521,481,509,537,533,464,514,524,531,491,568,482,536,595,601,476,545,528,539,531,179,429,393,308,248,820,153,319,568,756,541,755,660,601,554,541,544,547,565,556,536,541,549,561,557,495,497,488,512,512,463,488,489,491,483,427,441,448,473,470,414,384,396,425,423,437,401,405,426,439,511,435,456,495,518,528,499,516,544,545,565,528,562,591,580,571,564,580,592,589,556,565,570,577,567,538,554,559,553,545,475,514,504,504,473,488,493,491,505,500,509,475,498,531,536,519,501,520,543,544,518,514,525,548,545,509,518,553,575,545,456,508,529,536,507,450,444,463,477,467,512,452,490,529,526,568,508,534,563,581,508,547,537,538,519,492,507,511,526,525,382,479,494,494,449,204,282,207,170,123,676,417,636,798,791,540,601,569,555,546,554,544,569,602,588,484,535,536,538,511,472,474,480,500,499,428,467,467,467,449,440,424,445,470,462,397,420,411,439,428,397,367,365,393,406,507,398,451,500,515,581,509,521,548,567,568,585,597,630,606,635,539,567,616,635,586,638,657,660,635,555,545,544,566,568,513,530,516,519,524,503,497,493,504,516,500,478,483,503,511,496,488,488,501,511,525,483,486,512,532,514,523,538,548,536,444,484,474,478,467,489,444,447,467,488,532,490,504,527,537,527,535,548,565,554,525,516,516,540,547,497,515,521,526,518,207,458,437,414,305,668,171,126,251,472,565,800,791,703,626,542,539,548,576,570,506,540,549,562,537,508,498,514,534,530,472,478,471,482,487,435,448,452,457,461,412,402,404,429,430,392,388,374,379,388,499,405,441,485,504,521,492,515,549,548,569,500,507,533,563,556,569,571,596,591,592,553,574,605,611,524,580,579,583,564,512,514,534,547,535,